TIME,ECG
0,-94.24
0.001953252,-102.241
0.003906504,-109.993
0.005859756,-117.369
0.007813009,-124.31
0.009766261,-130.879
0.011719513,-137.007
0.013672765,-142.519
0.015626017,-147.348
0.017579269,-151.301
0.019532522,-154.617
0.021485774,-158.112
0.023439026,-161.54
0.025392278,-164.073
0.02734553,-164.15
0.029298782,-159.068
0.031252035,-148.79
0.033205287,-135.294
0.035158539,-121.787
0.037111791,-113.423
0.039065043,-112.174
0.041018295,-117.084
0.042971548,-125.417
0.0449248,-131.546
0.046878052,-131.237
0.048831304,-122.89
0.050784556,-106.928
0.052737808,-87.006
0.05469106,-68.385
0.056644313,-54.53
0.058597565,-47.126
0.060550817,-45.613
0.062504069,-45.905
0.064457321,-44.944
0.066410573,-41.053
0.068363826,-33.044
0.070317078,-23.03
0.07227033,-12.894
0.074223582,-3.08
0.076176834,5.506
0.078130086,13.733
0.080083339,23.187
0.082036591,33.4
0.083989843,43.539
0.085943095,52.333
0.087896347,56.692
0.089849599,56.463
0.091802852,54.678
0.093756104,55.008
0.095709356,64.238
0.097662608,85.577
0.09961586,115.121
0.101569112,146.383
0.103522364,168.676
0.105475617,174.087
0.107428869,163.357
0.109382121,141.181
0.111335373,115.95
0.113288625,95.473
0.115241877,81.866
0.11719513,74.386
0.119148382,71.268
0.121101634,70.371
0.123054886,71.593
0.125008138,76.679
0.12696139,86.19
0.128914643,100.576
0.130867895,119.619
0.132821147,139.844
0.134774399,158.504
0.136727651,172.658
0.138680903,179.01
0.140634156,179.018
0.142587408,174.599
0.14454066,167.973
0.146493912,162.619
0.148447164,158.151
0.150400416,153.817
0.152353668,149.838
0.154306921,145.794
0.156260173,142.818
0.158213425,141.853
0.160166677,142.413
0.162119929,143.833
0.164073181,145.502
0.166026434,147.017
0.167979686,148.37
0.169932938,149.606
0.17188619,150.502
0.173839442,150.871
0.175792694,150.785
0.177745947,150.482
0.179699199,150.163
0.181652451,149.909
0.183605703,149.682
0.185558955,149.38
0.187512207,148.991
0.18946546,148.553
0.191418712,148.062
0.193371964,147.488
0.195325216,146.786
0.197278468,145.919
0.19923172,144.891
0.201184972,143.735
0.203138225,142.479
0.205091477,141.133
0.207044729,139.701
0.208997981,138.181
0.210951233,136.573
0.212904485,134.888
0.214857738,133.132
0.21681099,131.31
0.218764242,129.421
0.220717494,127.463
0.222670746,125.432
0.224623998,123.326
0.226577251,121.147
0.228530503,118.899
0.230483755,116.57
0.232437007,114.135
0.234390259,111.567
0.236343511,108.836
0.238296764,105.942
0.240250016,102.912
0.242203268,99.768
0.24415652,96.53
0.246109772,93.216
0.248063024,89.828
0.250016276,86.408
0.251969529,83.039
0.253922781,79.714
0.255876033,76.35
0.257829285,72.866
0.259782537,69.166
0.261735789,65.288
0.263689042,61.444
0.265642294,57.733
0.267595546,54.091
0.269548798,50.598
0.27150205,47.454
0.273455302,44.868
0.275408555,43.139
0.277361807,42.258
0.279315059,41.779
0.281268311,41.47
0.283221563,41.402
0.285174815,41.474
0.287128068,41.431
0.28908132,40.941
0.291034572,39.409
0.292987824,36.545
0.294941076,32.62
0.296894328,27.633
0.29884758,21.212
0.300800833,13.192
0.302754085,3.649
0.304707337,-7.131
0.306660589,-18.455
0.308613841,-29.639
0.310567093,-40.393
0.312520346,-50.181
0.314473598,-58.073
0.31642685,-63.289
0.318380102,-65.412
0.320333354,-64.279
0.322286606,-60.085
0.324239859,-53.392
0.326193111,-44.691
0.328146363,-34.626
0.330099615,-24.338
0.332052867,-15.021
0.334006119,-7.502
0.335959372,-2.496
0.337912624,-0.561
0.339865876,-1.692
0.341819128,-5.8
0.34377238,-12.806
0.345725632,-21.945
0.347678884,-32.131
0.349632137,-42.653
0.351585389,-52.635
0.353538641,-61.714
0.355491893,-70.69
0.357445145,-79.244
0.359398397,-86.376
0.36135165,-90.871
0.363304902,-90.262
0.365258154,-85.097
0.367211406,-78.829
0.369164658,-74.872
0.37111791,-77.691
0.373071163,-87.638
0.375024415,-100.563
0.376977667,-113.075
0.378930919,-121.505
0.380884171,-125.107
0.382837423,-126.902
0.384790676,-128.745
0.386743928,-131.934
0.38869718,-136.881
0.390650432,-142.327
0.392603684,-147.72
0.394556936,-153.087
0.396510188,-158.265
0.398463441,-163.298
0.400416693,-168.106
0.402369945,-172.39
0.404323197,-176.007
0.406276449,-178.897
0.408229701,-180.91
0.410182954,-181.895
0.412136206,-181.765
0.414089458,-180.43
0.41604271,-177.82
0.417995962,-173.949
0.419949214,-168.828
0.421902467,-162.52
0.423855719,-155.253
0.425808971,-147.269
0.427762223,-138.809
0.429715475,-130.175
0.431668727,-121.581
0.43362198,-113.031
0.435575232,-104.427
0.437528484,-95.498
0.439481736,-85.78
0.441434988,-74.982
0.44338824,-62.932
0.445341492,-49.449
0.447294745,-34.681
0.449247997,-19.167
0.451201249,-3.732
0.453154501,10.326
0.455107753,21.382
0.457061005,28.079
0.459014258,29.199
0.46096751,24.172
0.462920762,13.543
0.464874014,-1.958
0.466827266,-21.116
0.468780518,-43.973
0.470733771,-72.266
0.472687023,-106.352
0.474640275,-145.623
0.476593527,-185.256
0.478546779,-215.707
0.480500031,-229.602
0.482453284,-222.709
0.484406536,-197.689
0.486359788,-165.958
0.48831304,-139.363
0.490266292,-126.497
0.492219544,-129.862
0.494172796,-143.298
0.496126049,-157.887
0.498079301,-167.109
0.500032553,-168.145
0.501985805,-162.993
0.503939057,-155.954
0.505892309,-149.66
0.507845562,-144.872
0.509798814,-141.033
0.511752066,-136.799
0.513705318,-131.741
0.51565857,-126.198
0.517611822,-120.529
0.519565075,-115.155
0.521518327,-110.221
0.523471579,-105.655
0.525424831,-101.427
0.527378083,-97.458
0.529331335,-93.733
0.531284588,-90.373
0.53323784,-87.353
0.535191092,-84.545
0.537144344,-81.94
0.539097596,-79.346
0.541050848,-77.046
0.5430041,-76.011
0.544957353,-75.919
0.546910605,-75.702
0.548863857,-73.697
0.550817109,-66.868
0.552770361,-55.401
0.554723613,-42.311
0.556676866,-30.711
0.558630118,-25.145
0.56058337,-25.937
0.562536622,-28.934
0.564489874,-30.993
0.566443126,-28.491
0.568396379,-21.213
0.570349631,-13.364
0.572302883,-6.602
0.574256135,-1.234
0.576209387,4.026
0.578162639,13.584
0.580115892,27.76
0.582069144,43.336
0.584022396,57.177
0.585975648,64.586
0.5879289,65.29
0.589882152,63.709
0.591835404,63.177
0.593788657,67.226
0.595741909,76.438
0.597695161,87.64
0.599648413,98.889
0.601601665,108.838
0.603554917,117.083
0.60550817,124.9
0.607461422,132.851
0.609414674,140.894
0.611367926,149.067
0.613321178,157.153
0.61527443,165.096
0.617227683,173.08
0.619180935,181.154
0.621134187,189.265
0.623087439,197.423
0.625040691,205.654
0.626993943,213.953
0.628947196,222.337
0.630900448,230.79
0.6328537,239.205
0.634806952,247.532
0.636760204,255.807
0.638713456,263.958
0.640666708,271.813
0.642619961,279.345
0.644573213,286.575
0.646526465,293.439
0.648479717,300.179
0.650432969,306.553
0.652386221,311.433
0.654339474,315.002
0.656292726,318.249
0.658245978,322.537
0.66019923,331.373
0.662152482,345.165
0.664105734,360.145
0.666058987,373.092
0.668012239,378.429
0.669965491,374.168
0.671918743,366.097
0.673871995,358.515
0.675825247,356.494
0.6777785,363.101
0.679731752,373.214
0.681685004,383.164
0.683638256,390.486
0.685591508,392.74
0.68754476,392.596
0.689498012,392.1
0.691451265,391.534
0.693404517,391.842
0.695357769,392.332
0.697311021,392.296
0.699264273,392.037
0.701217525,391.537
0.703170778,390.826
0.70512403,390.058
0.707077282,389.169
0.709030534,388.088
0.710983786,386.839
0.712937038,385.423
0.714890291,383.821
0.716843543,382.043
0.718796795,380.12
0.720750047,378.066
0.722703299,375.904
0.724656551,373.684
0.726609804,371.449
0.728563056,369.225
0.730516308,367.032
0.73246956,364.887
0.734422812,362.801
0.736376064,360.804
0.738329316,358.929
0.740282569,357.141
0.742235821,355.362
0.744189073,353.572
0.746142325,351.79
0.748095577,349.959
0.750048829,348.026
0.752002082,346.046
0.753955334,344.023
0.755908586,342.103
0.757861838,340.68
0.75981509,339.137
0.761768342,336.808
0.763721595,334.385
0.765674847,332.42
0.767628099,333.621
0.769581351,340.577
0.771534603,350.443
0.773487855,359.018
0.775441108,360.06
0.77739436,348.34
0.779347612,328.336
0.781300864,308.291
0.783254116,296.601
0.785207368,299.465
0.78716062,313.032
0.789113873,328.556
0.791067125,339.109
0.793020377,340.376
0.794973629,334.154
0.796926881,325.879
0.798880133,318.925
0.800833386,314.686
0.802786638,312.688
0.80473989,310.987
0.806693142,308.683
0.808646394,305.86
0.810599646,302.669
0.812552899,299.363
0.814506151,295.876
0.816459403,291.941
0.818412655,287.59
0.820365907,283.19
0.822319159,279.198
0.824272412,275.846
0.826225664,272.973
0.828178916,270.25
0.830132168,267.494
0.83208542,264.424
0.834038672,260.484
0.835991924,254.791
0.837945177,246.104
0.839898429,234.019
0.841851681,218.74
0.843804933,199.773
0.845758185,177.08
0.847711437,149.639
0.84966469,116.787
0.851617942,81.575
0.853571194,46.496
0.855524446,14.846
0.857477698,-9.791
0.85943095,-28.834
0.861384203,-43.168
0.863337455,-54.189
0.865290707,-65.754
0.867243959,-77.824
0.869197211,-89.401
0.871150463,-99.106
0.873103716,-103.624
0.875056968,-103.796
0.87701022,-104.671
0.878963472,-113.422
0.880916724,-137.459
0.882869976,-179.365
0.884823228,-236.102
0.886776481,-300.499
0.888729733,-364.974
0.890682985,-425.222
0.892636237,-480.22
0.894589489,-531.55
0.896542741,-580.729
0.898495994,-627.107
0.900449246,-669.266
0.902402498,-705.814
0.90435575,-735.61
0.906309002,-759.455
0.908262254,-777.348
0.910215507,-788.407
0.912168759,-794.963
0.914122011,-799.43
0.916075263,-806.849
0.918028515,-823.952
0.919981767,-849.678
0.92193502,-879.029
0.923888272,-903.69
0.925841524,-913.119
0.927794776,-906.076
0.929748028,-888.805
0.93170128,-869.239
0.933654532,-855.204
0.935607785,-847.359
0.937561037,-839.078
0.939514289,-826.335
0.941467541,-811.702
0.943420793,-802.511
0.945374045,-809.482
0.947327298,-836.917
0.94928055,-876.726
0.951233802,-917.808
0.953187054,-950.535
0.955140306,-971.119
0.957093558,-985.875
0.959046811,-999.392
0.961000063,-1009.068
0.962953315,-1008.416
0.964906567,-988.403
0.966859819,-947.718
0.968813071,-896.88
0.970766324,-850.968
0.972719576,-823.798
0.974672828,-820.825
0.97662608,-836.886
0.978579332,-861.598
0.980532584,-885.86
0.982485836,-906.427
0.984439089,-925.362
0.986392341,-948.354
0.988345593,-979.533
0.990298845,-1016.932
0.992252097,-1056.881
0.994205349,-1094.419
0.996158602,-1125.62
0.998111854,-1153.384
1.000065106,-1181.694
1.002018358,-1213.77
1.00397161,-1253.361
1.005924862,-1299.141
1.007878115,-1347.75
1.009831367,-1399.002
1.011784619,-1453.29
1.013737871,-1515.329
1.015691123,-1594.958
1.017644375,-1697.98
1.019597628,-1827.542
1.02155088,-1982.431
1.023504132,-2152.333
1.025457384,-2327.396
1.027410636,-2497.459
1.029363888,-2651.841
1.03131714,-2787.922
1.033270393,-2905.44
1.035223645,-3006.941
1.037176897,-3099.667
1.039130149,-3185.622
1.041083401,-3263.694
1.043036653,-3332.145
1.044989906,-3385.695
1.046943158,-3423.672
1.04889641,-3449.396
1.050849662,-3463.022
1.052802914,-3465.542
1.054756166,-3454.838
1.056709419,-3426.05
1.058662671,-3382.205
1.060615923,-3330.108
1.062569175,-3279.326
1.064522427,-3241.313
1.066475679,-3219.233
1.068428932,-3210.104
1.070382184,-3208.468
1.072335436,-3207.727
1.074288688,-3205.853
1.07624194,-3204.847
1.078195192,-3207.551
1.080148444,-3216.056
1.082101697,-3229.792
1.084054949,-3246.165
1.086008201,-3262.357
1.087961453,-3276.261
1.089914705,-3287.526
1.091867957,-3296.383
1.09382121,-3301.709
1.095774462,-3302.447
1.097727714,-3296.565
1.099680966,-3282.077
1.101634218,-3260.496
1.10358747,-3232.783
1.105540723,-3200.255
1.107493975,-3164.621
1.109447227,-3123.25
1.111400479,-3074.183
1.113353731,-3015.849
1.115306983,-2946.043
1.117260236,-2866.68
1.119213488,-2779.979
1.12116674,-2687.603
1.123119992,-2592.263
1.125073244,-2494.944
1.127026496,-2396.789
1.128979748,-2300.3
1.130933001,-2207.677
1.132886253,-2121.139
1.134839505,-2042.393
1.136792757,-1972.144
1.138746009,-1910.93
1.140699261,-1859.107
1.142652514,-1816.266
1.144605766,-1780.917
1.146559018,-1750.396
1.14851227,-1721.721
1.150465522,-1693.216
1.152418774,-1665.351
1.154372027,-1640.116
1.156325279,-1618.858
1.158278531,-1599.346
1.160231783,-1574.675
1.162185035,-1535.854
1.164138287,-1476.742
1.16609154,-1398.898
1.168044792,-1312.35
1.169998044,-1230.902
1.171951296,-1165.652
1.173904548,-1119.459
1.1758578,-1086.888
1.177811052,-1059.181
1.179764305,-1028.946
1.181717557,-994.016
1.183670809,-957.25
1.185624061,-922.658
1.187577313,-892.951
1.189530565,-868.301
1.191483818,-846.426
1.19343707,-824.94
1.195390322,-802.838
1.197343574,-779.467
1.199296826,-754.232
1.201250078,-726.434
1.203203331,-694.641
1.205156583,-657.822
1.207109835,-615.76
1.209063087,-567.935
1.211016339,-513.396
1.212969591,-452.234
1.214922844,-385.934
1.216876096,-316.572
1.218829348,-246.47
1.2207826,-175.507
1.222735852,-100.151
1.224689104,-18.276
1.226642356,68.252
1.228595609,152.145
1.230548861,220.767
1.232502113,264.26
1.234455365,280.961
1.236408617,279.133
1.238361869,275.035
1.240315122,282.888
1.242268374,308.771
1.244221626,347.843
1.246174878,388.008
1.24812813,420.534
1.250081382,444.355
1.252034635,466.257
1.253987887,494.903
1.255941139,531.627
1.257894391,567.673
1.259847643,589.235
1.261800895,587.06
1.263754148,562.769
1.2657074,532.247
1.267660652,517.566
1.269613904,533.497
1.271567156,583.787
1.273520408,656.16
1.27547366,729.563
1.277426913,788.986
1.279380165,827.039
1.281333417,848.955
1.283286669,866.938
1.285239921,887.95
1.287193173,914.605
1.289146426,942.215
1.291099678,964.94
1.29305293,983.437
1.295006182,1002.115
1.296959434,1029.862
1.298912686,1072.026
1.300865939,1126.168
1.302819191,1184.301
1.304772443,1233.186
1.306725695,1263.396
1.308678947,1272.785
1.310632199,1266.766
1.312585452,1258.064
1.314538704,1258.479
1.316491956,1274.699
1.318445208,1305.868
1.32039846,1343.728
1.322351712,1378.572
1.324304964,1403.521
1.326258217,1417.068
1.328211469,1422.69
1.330164721,1425.208
1.332117973,1427.963
1.334071225,1431.635
1.336024477,1434.622
1.33797773,1435.886
1.339930982,1435.958
1.341884234,1436.528
1.343837486,1440.629
1.345790738,1448.812
1.34774399,1458.896
1.349697243,1467.292
1.351650495,1468.505
1.353603747,1460.334
1.355556999,1443.977
1.357510251,1423.024
1.359463503,1403.647
1.361416756,1388.912
1.363370008,1379.972
1.36532326,1376.051
1.367276512,1374.339
1.369229764,1374.703
1.371183016,1376.277
1.373136268,1377.802
1.375089521,1378.3
1.377042773,1374.307
1.378996025,1363.858
1.380949277,1346.609
1.382902529,1323.404
1.384855781,1297.867
1.386809034,1274.298
1.388762286,1257.21
1.390715538,1249.652
1.39266879,1251.37
1.394622042,1258.957
1.396575294,1266.432
1.398528547,1268.931
1.400481799,1264.731
1.402435051,1255.207
1.404388303,1244.21
1.406341555,1234.677
1.408294807,1227.464
1.41024806,1222.079
1.412201312,1217.091
1.414154564,1211.653
1.416107816,1205.717
1.418061068,1199.303
1.42001432,1192.429
1.421967572,1184.945
1.423920825,1176.6
1.425874077,1167.266
1.427827329,1156.896
1.429780581,1145.416
1.431733833,1132.735
1.433687085,1118.823
1.435640338,1103.718
1.43759359,1087.508
1.439546842,1070.309
1.441500094,1052.241
1.443453346,1033.411
1.445406598,1013.968
1.447359851,994.086
1.449313103,973.9
1.451266355,953.517
1.453219607,933.01
1.455172859,912.427
1.457126111,891.844
1.459079364,871.354
1.461032616,851.05
1.462985868,831.027
1.46493912,811.338
1.466892372,791.999
1.468845624,773.018
1.470798876,754.377
1.472752129,736.017
1.474705381,717.85
1.476658633,699.72
1.478611885,681.447
1.480565137,662.903
1.482518389,643.986
1.484471642,624.623
1.486424894,604.762
1.488378146,584.308
1.490331398,563.16
1.49228465,541.237
1.494237902,518.459
1.496191155,494.772
1.498144407,470.158
1.500097659,444.587
1.502050911,418.047
1.504004163,390.64
1.505957415,362.56
1.507910668,334.123
1.50986392,305.739
1.511817172,277.749
1.513770424,250.423
1.515723676,224.004
1.517676928,198.739
1.51963018,174.752
1.521583433,151.999
1.523536685,130.288
1.525489937,109.316
1.527443189,88.927
1.529396441,69.166
1.531349693,50.277
1.533302946,32.57
1.535256198,16.55
1.53720945,3.098
1.539162702,-6.761
1.541115954,-11.92
1.543069206,-11.451
1.545022459,-4.832
1.546975711,8.03
1.548928963,27.067
1.550882215,51.922
1.552835467,81.561
1.554788719,114.699
1.556741972,149.835
1.558695224,185.398
1.560648476,220.237
1.562601728,253.596
1.56455498,284.721
1.566508232,312.988
1.568461484,338.399
1.570414737,361.189
1.572367989,381.882
1.574321241,401.304
1.576274493,419.901
1.578227745,437.847
1.580180997,455.464
1.58213425,473.088
1.584087502,490.755
1.586040754,508.389
1.587994006,525.679
1.589947258,542.045
1.59190051,557.218
1.593853763,571.156
1.595807015,583.753
1.597760267,594.93
1.599713519,604.684
1.601666771,613.053
1.603620023,620.23
1.605573276,626.581
1.607526528,632.337
1.60947978,637.619
1.611433032,642.532
1.613386284,647.133
1.615339536,651.499
1.617292788,655.731
1.619246041,659.876
1.621199293,663.914
1.623152545,667.822
1.625105797,671.587
1.627059049,675.203
1.629012301,678.693
1.630965554,682.059
1.632918806,685.267
1.634872058,688.283
1.63682531,691.07
1.638778562,693.602
1.640731814,695.866
1.642685067,697.85
1.644638319,699.523
1.646591571,700.855
1.648544823,701.814
1.650498075,702.361
1.652451327,702.478
1.65440458,702.154
1.656357832,701.383
1.658311084,700.173
1.660264336,698.539
1.662217588,696.505
1.66417084,694.114
1.666124092,691.414
1.668077345,688.452
1.670030597,685.274
1.671983849,681.91
1.673937101,678.389
1.675890353,674.747
1.677843605,671.017
1.679796858,667.236
1.68175011,663.452
1.683703362,659.71
1.685656614,656.063
1.687609866,652.569
1.689563118,649.257
1.691516371,646.145
1.693469623,643.236
1.695422875,640.503
1.697376127,637.915
1.699329379,635.428
1.701282631,632.986
1.703235884,630.544
1.705189136,628.069
1.707142388,625.523
1.70909564,622.881
1.711048892,620.118
1.713002144,617.188
1.714955396,614.042
1.716908649,610.617
1.718861901,606.838
1.720815153,602.653
1.722768405,598.029
1.724721657,592.942
1.726674909,587.396
1.728628162,581.413
1.730581414,575.03
1.732534666,568.313
1.734487918,561.318
1.73644117,554.084
1.738394422,546.646
1.740347675,539.021
1.742300927,531.225
1.744254179,523.292
1.746207431,515.262
1.748160683,507.177
1.750113935,499.093
1.752067188,491.051
1.75402044,483.078
1.755973692,475.207
1.757926944,467.448
1.759880196,459.797
1.761833448,452.231
1.7637867,444.698
1.765739953,437.15
1.767693205,429.556
1.769646457,421.899
1.771599709,414.177
1.773552961,406.394
1.775506213,398.532
1.777459466,390.566
1.779412718,382.478
1.78136597,374.245
1.783319222,365.868
1.785272474,357.371
1.787225726,348.753
1.789178979,340.009
1.791132231,331.136
1.793085483,322.133
1.795038735,313.055
1.796991987,304.022
1.798945239,295.065
1.800898492,286.121
1.802851744,277.117
1.804804996,267.941
1.806758248,258.607
1.8087115,249.322
1.810664752,240.17
1.812618004,231.056
1.814571257,221.995
1.816524509,213.122
1.818477761,204.672
1.820431013,197.146
1.822384265,190.785
1.824337517,185.271
1.82629077,180.336
1.828244022,175.815
1.830197274,171.448
1.832150526,167.066
1.834103778,162.251
1.83605703,155.944
1.838010283,147.297
1.839963535,136.128
1.841916787,122.922
1.843870039,109.07
1.845823291,95.802
1.847776543,83.32
1.849729796,70.302
1.851683048,54.272
1.8536363,34.037
1.855589552,11.42
1.857542804,-7.924
1.859496056,-15.904
1.861449308,-6.893
1.863402561,18.156
1.865355813,50.706
1.867309065,77.558
1.869262317,87.521
1.871215569,77.055
1.873168821,51.698
1.875122074,22.339
1.877075326,-1.671
1.879028578,-16.327
1.88098183,-23.494
1.882935082,-28.216
1.884888334,-33.623
1.886841587,-40.105
1.888794839,-46.588
1.890748091,-51.5
1.892701343,-54.742
1.894654595,-57.145
1.896607847,-59.254
1.8985611,-61.416
1.900514352,-63.551
1.902467604,-66.149
1.904420856,-69.821
1.906374108,-73.958
1.90832736,-78.214
1.910280612,-81.03
1.912233865,-80.742
1.914187117,-79.116
1.916140369,-77.393
1.918093621,-77.393
1.920046873,-81.506
1.922000125,-87.612
1.923953378,-93.97
1.92590663,-99.446
1.927859882,-102.102
1.929813134,-103.439
1.931766386,-104.946
1.933719638,-106.942
1.935672891,-110.31
1.937626143,-114.519
1.939579395,-118.865
1.941532647,-123.408
1.943485899,-127.993
1.945439151,-132.601
1.947392404,-137.323
1.949345656,-142.045
1.951298908,-146.68
1.95325216,-151.242
1.955205412,-155.729
1.957158664,-160.124
1.959111916,-164.413
1.961065169,-168.554
1.963018421,-172.504
1.964971673,-176.246
1.966924925,-179.787
1.968878177,-183.13
1.970831429,-186.293
1.972784682,-189.304
1.974737934,-192.215
1.976691186,-195.123
1.978644438,-198.071
1.98059769,-201
1.982550942,-203.767
1.984504195,-206.184
1.986457447,-208.15
1.988410699,-209.714
1.990363951,-210.952
1.992317203,-211.829
1.994270455,-212.334
1.996223708,-212.668
1.99817696,-213.238
2.000130212,-214.552
2.002083464,-216.934
2.004036716,-220.244
2.005989968,-224.051
2.00794322,-228.132
2.009896473,-232.334
2.011849725,-236.154
2.013802977,-238.824
2.015756229,-239.482
2.017709481,-237.226
2.019662733,-231.772
2.021615986,-223.657
2.023569238,-213.088
2.02552249,-200.668
2.027475742,-188.502
2.029428994,-177.909
2.031382246,-169.566
2.033335499,-163.902
2.035288751,-158.195
2.037242003,-151.417
2.039195255,-147.069
2.041148507,-149.327
2.043101759,-165.026
2.045055012,-197.933
2.047008264,-242.791
2.048961516,-290.989
2.050914768,-331.039
2.05286802,-353.592
2.054821272,-358.685
2.056774524,-351.427
2.058727777,-340.147
2.060681029,-332.735
2.062634281,-331.068
2.064587533,-333.53
2.066540785,-336.956
2.068494037,-338.645
2.07044729,-338.699
2.072400542,-338.533
2.074353794,-339.355
2.076307046,-341.553
2.078260298,-344.614
2.08021355,-347.674
2.082166803,-350.273
2.084120055,-352.376
2.086073307,-353.918
2.088026559,-354.886
2.089979811,-355.295
2.091933063,-355.198
2.093886316,-354.846
2.095839568,-354.552
2.09779282,-354.469
2.099746072,-354.652
2.101699324,-355.095
2.103652576,-355.732
2.105605828,-356.639
2.107559081,-357.917
2.109512333,-359.419
2.111465585,-361.034
2.113418837,-362.69
2.115372089,-364.112
2.117325341,-365.822
2.119278594,-368.356
2.121231846,-370.943
2.123185098,-373.331
2.12513835,-374.106
2.127091602,-371.585
2.129044854,-367.607
2.130998107,-363.408
2.132951359,-360.821
2.134904611,-362.357
2.136857863,-365.795
2.138811115,-369.264
2.140764367,-371.503
2.14271762,-370.407
2.144670872,-367.536
2.146624124,-364.46
2.148577376,-361.524
2.150530628,-359.682
2.15248388,-358.407
2.154437132,-356.98
2.156390385,-355.532
2.158343637,-353.983
2.160296889,-352.363
2.162250141,-350.82
2.164203393,-349.316
2.166156645,-347.77
2.168109898,-346.184
2.17006315,-344.666
2.172016402,-343.289
2.173969654,-341.952
2.175922906,-340.667
2.177876158,-339.467
2.179829411,-338.084
2.181782663,-336.972
2.183735915,-336.7
2.185689167,-336.53
2.187642419,-336.206
2.189595671,-334.68
2.191548924,-329.979
2.193502176,-323.298
2.195455428,-316.485
2.19740868,-311.48
2.199361932,-311.73
2.201315184,-317.17
2.203268436,-324.825
2.205221689,-331.674
2.207174941,-333.829
2.209128193,-329.156
2.211081445,-319.628
2.213034697,-308.965
2.214987949,-300.346
2.216941202,-296.872
2.218894454,-298.767
2.220847706,-302.722
2.222800958,-306.628
2.22475421,-308.496
2.226707462,-307.025
2.228660715,-304.155
2.230613967,-301.096
2.232567219,-298.268
2.234520471,-296.487
2.236473723,-295.121
2.238426975,-293.62
2.240380228,-292.181
2.24233348,-290.706
2.244286732,-289.249
2.246239984,-287.965
2.248193236,-286.765
2.250146488,-285.573
2.25209974,-284.416
2.254052993,-283.289
2.256006245,-282.173
2.257959497,-281.08
2.259912749,-280.025
2.261866001,-279.009
2.263819253,-278.049
2.265772506,-277.164
2.267725758,-276.352
2.26967901,-275.612
2.271632262,-274.95
2.273585514,-274.37
2.275538766,-273.873
2.277492019,-273.462
2.279445271,-273.139
2.281398523,-272.904
2.283351775,-272.758
2.285305027,-272.705
2.287258279,-272.743
2.289211532,-272.873
2.291164784,-273.095
2.293118036,-273.408
2.295071288,-273.808
2.29702454,-274.294
2.298977792,-274.862
2.300931044,-275.509
2.302884297,-276.229
2.304837549,-277.016
2.306790801,-277.865
2.308744053,-278.769
2.310697305,-279.721
2.312650557,-280.711
2.31460381,-281.733
2.316557062,-282.775
2.318510314,-283.828
2.320463566,-284.885
2.322416818,-285.937
2.32437007,-286.977
2.326323323,-287.995
2.328276575,-288.979
2.330229827,-289.92
2.332183079,-290.809
2.334136331,-291.636
2.336089583,-292.382
2.338042836,-293.022
2.339996088,-293.535
2.34194934,-293.906
2.343902592,-294.132
2.345855844,-294.217
2.347809096,-294.153
2.349762348,-293.941
2.351715601,-293.614
2.353668853,-293.216
2.355622105,-292.776
2.357575357,-292.304
2.359528609,-291.78
2.361481861,-291.155
2.363435114,-290.417
2.365388366,-289.511
2.367341618,-288.245
2.36929487,-286.481
2.371248122,-284.229
2.373201374,-281.536
2.375154627,-278.544
2.377107879,-274.963
2.379061131,-269.938
2.381014383,-263.11
2.382967635,-255.075
2.384920887,-248.337
2.38687414,-246.395
2.388827392,-251.065
2.390780644,-261.454
2.392733896,-272.145
2.394687148,-276.174
2.3966404,-269.5
2.398593652,-251.527
2.400546905,-228.241
2.402500157,-208.131
2.404453409,-196.299
2.406406661,-195.364
2.408359913,-201.882
2.410313165,-209.172
2.412266418,-213.408
2.41421967,-211.941
2.416172922,-205.455
2.418126174,-197.392
2.420079426,-189.43
2.422032678,-182.63
2.423985931,-177.252
2.425939183,-172.209
2.427892435,-167.138
2.429845687,-162.127
2.431798939,-157.117
2.433752191,-152.29
2.435705444,-147.698
2.437658696,-143.179
2.439611948,-138.668
2.4415652,-134.157
2.443518452,-129.619
2.445471704,-125.046
2.447424956,-120.459
2.449378209,-115.87
2.451331461,-111.294
2.453284713,-106.758
2.455237965,-102.27
2.457191217,-97.818
2.459144469,-93.403
2.461097722,-89.031
2.463050974,-84.695
2.465004226,-80.386
2.466957478,-76.093
2.46891073,-71.803
2.470863982,-67.513
2.472817235,-63.242
2.474770487,-58.989
2.476723739,-54.737
2.478676991,-50.498
2.480630243,-46.306
2.482583495,-42.187
2.484536748,-38.171
2.48649,-34.261
2.488443252,-30.411
2.490396504,-26.605
2.492349756,-22.894
2.494303008,-19.225
2.49625626,-15.423
2.498209513,-11.45
2.500162765,-7.36
2.502116017,-3.127
2.504069269,1.055
2.506022521,5.546
2.507975773,11.438
2.509929026,18.48
2.511882278,25.678
2.51383553,31.368
2.515788782,32.439
2.517742034,29.119
2.519695286,24.522
2.521648539,21.762
2.523601791,25.262
2.525555043,35.253
2.527508295,47.565
2.529461547,58.979
2.531414799,66.003
2.533368052,68.068
2.535321304,68.294
2.537274556,68.588
2.539227808,70.263
2.54118106,73.703
2.543134312,77.635
2.545087564,81.491
2.547040817,85.313
2.548994069,89.061
2.550947321,92.928
2.552900573,96.96
2.554853825,100.987
2.556807077,104.959
2.55876033,108.907
2.560713582,112.826
2.562666834,116.71
2.564620086,120.566
2.566573338,124.401
2.56852659,128.232
2.570479843,132.089
2.572433095,135.978
2.574386347,139.885
2.576339599,143.804
2.578292851,147.733
2.580246103,151.668
2.582199356,155.606
2.584152608,159.544
2.58610586,163.473
2.588059112,167.387
2.590012364,171.285
2.591965616,175.164
2.593918868,179.019
2.595872121,182.849
2.597825373,186.647
2.599778625,190.412
2.601731877,194.136
2.603685129,197.813
2.605638381,201.438
2.607591634,205.003
2.609544886,208.503
2.611498138,211.929
2.61345139,215.277
2.615404642,218.538
2.617357894,221.708
2.619311147,224.784
2.621264399,227.762
2.623217651,230.639
2.625170903,233.41
2.627124155,236.063
2.629077407,238.594
2.63103066,241
2.632983912,243.28
2.634937164,245.438
2.636890416,247.479
2.638843668,249.408
2.64079692,251.24
2.642750172,252.997
2.644703425,254.705
2.646656677,256.386
2.648609929,258.058
2.650563181,259.723
2.652516433,261.385
2.654469685,263.051
2.656422938,264.726
2.65837619,266.423
2.660329442,268.147
2.662282694,269.889
2.664235946,271.64
2.666189198,273.397
2.668142451,275.154
2.670095703,276.902
2.672048955,278.612
2.674002207,280.224
2.675955459,281.672
2.677908711,282.901
2.679861964,283.87
2.681815216,284.575
2.683768468,285.014
2.68572172,285.183
2.687674972,285.089
2.689628224,284.749
2.691581476,284.196
2.693534729,283.496
2.695487981,282.704
2.697441233,281.842
2.699394485,280.948
2.701347737,280.07
2.703300989,279.291
2.705254242,278.773
2.707207494,278.692
2.709160746,279.186
2.711113998,280.395
2.71306725,282.436
2.715020502,285.349
2.716973755,289.146
2.718927007,293.751
2.720880259,298.969
2.722833511,304.632
2.724786763,310.58
2.726740015,316.603
2.728693268,322.576
2.73064652,328.55
2.732599772,334.717
2.734553024,341.469
2.736506276,349.249
2.738459528,358.277
2.74041278,368.677
2.742366033,380.586
2.744319285,393.957
2.746272537,408.406
2.748225789,423.086
2.750179041,436.609
2.752132293,447.516
2.754085546,454.624
2.756038798,456.928
2.75799205,453.58
2.759945302,443.997
2.761898554,428.08
2.763851806,406.528
2.765805059,380.953
2.767758311,353.23
2.769711563,325.255
2.771664815,298.926
2.773618067,275.861
2.775571319,257.48
2.777524572,244.794
2.779477824,238.008
2.781431076,236.484
2.783384328,239.249
2.78533758,245.04
2.787290832,252.378
2.789244084,260.087
2.791197337,267.096
2.793150589,272.549
2.795103841,276.122
2.797057093,277.9
2.799010345,278.141
2.800963597,277.373
2.80291685,276.305
2.804870102,275.383
2.806823354,274.952
2.808776606,275.255
2.810729858,276.254
2.81268311,277.845
2.814636363,279.902
2.816589615,282.16
2.818542867,284.306
2.820496119,286.167
2.822449371,287.637
2.824402623,288.681
2.826355876,289.381
2.828309128,289.795
2.83026238,289.973
2.832215632,290.015
2.834168884,290.011
2.836122136,290.036
2.838075388,290.16
2.840028641,290.417
2.841981893,290.815
2.843935145,291.37
2.845888397,292.092
2.847841649,292.983
2.849794901,294.054
2.851748154,295.301
2.853701406,296.709
2.855654658,298.263
2.85760791,299.943
2.859561162,301.728
2.861514414,303.606
2.863467667,305.555
2.865420919,307.553
2.867374171,309.577
2.869327423,311.599
2.871280675,313.6
2.873233927,315.569
2.87518718,317.494
2.877140432,319.369
2.879093684,321.189
2.881046936,322.946
2.883000188,324.641
2.88495344,326.279
2.886906692,327.864
2.888859945,329.4
2.890813197,330.892
2.892766449,332.339
2.894719701,333.745
2.896672953,335.115
2.898626205,336.455
2.900579458,337.769
2.90253271,339.063
2.904485962,340.338
2.906439214,341.596
2.908392466,342.841
2.910345718,344.073
2.912298971,345.294
2.914252223,346.503
2.916205475,347.698
2.918158727,348.879
2.920111979,350.045
2.922065231,351.195
2.924018484,352.328
2.925971736,353.443
2.927924988,354.538
2.92987824,355.609
2.931831492,356.654
2.933784744,357.67
2.935737996,358.651
2.937691249,359.593
2.939644501,360.49
2.941597753,361.334
2.943551005,362.119
2.945504257,362.838
2.947457509,363.484
2.949410762,364.047
2.951364014,364.52
2.953317266,364.894
2.955270518,365.16
2.95722377,365.31
2.959177022,365.334
2.961130275,365.223
2.963083527,364.968
2.965036779,364.559
2.966990031,363.989
2.968943283,363.249
2.970896535,362.332
2.972849788,361.228
2.97480304,359.931
2.976756292,358.435
2.978709544,356.732
2.980662796,354.819
2.982616048,352.688
2.9845693,350.337
2.986522553,347.76
2.988475805,344.957
2.990429057,341.923
2.992382309,338.659
2.994335561,335.163
2.996288813,331.437
2.998242066,327.483
3.000195318,323.302
3.00214857,318.9
3.004101822,314.281
3.006055074,309.452
3.008008326,304.417
3.009961579,299.186
3.011914831,293.767
3.013868083,288.17
3.015821335,282.403
3.017774587,276.478
3.019727839,270.405
3.021681092,264.198
3.023634344,257.866
3.025587596,251.425
3.027540848,244.885
3.0294941,238.26
3.031447352,231.562
3.033400604,224.805
3.035353857,218.003
3.037307109,211.172
3.039260361,204.326
3.041213613,197.478
3.043166865,190.639
3.045120117,183.823
3.04707337,177.05
3.049026622,170.328
3.050979874,163.662
3.052933126,157.055
3.054886378,150.51
3.05683963,144.039
3.058792883,137.665
3.060746135,131.402
3.062699387,125.242
3.064652639,119.205
3.066605891,113.331
3.068559143,107.654
3.070512396,102.21
3.072465648,97.005
3.0744189,92.001
3.076372152,87.187
3.078325404,82.613
3.080278656,78.231
3.082231908,73.875
3.084185161,69.507
3.086138413,65.175
3.088091665,60.858
3.090044917,56.736
3.091998169,52.474
3.093951421,47.017
3.095904674,40.585
3.097857926,34.142
3.099811178,29.273
3.10176443,28.976
3.103717682,33.068
3.105670934,38.526
3.107624187,42.341
3.109577439,40.243
3.111530691,31.947
3.113483943,21.486
3.115437195,11.967
3.117390447,6.726
3.1193437,6.361
3.121296952,7.891
3.123250204,9.485
3.125203456,9.904
3.127156708,8.761
3.12910996,7.233
3.131063212,5.859
3.133016465,4.639
3.134969717,3.56
3.136922969,2.269
3.138876221,0.68
3.140829473,-0.998
3.142782725,-2.74
3.144735978,-4.401
3.14668923,-6.314
3.148642482,-9.501
3.150595734,-13.74
3.152548986,-18.104
3.154502238,-21.05
3.156455491,-19.687
3.158408743,-14.233
3.160361995,-7.605
3.162315247,-2.728
3.164268499,-3.76
3.166221751,-10.925
3.168175004,-20.306
3.170128256,-28.875
3.172081508,-33.347
3.17403476,-33.182
3.175988012,-31.313
3.177941264,-29.532
3.179894516,-29.073
3.181847769,-30.294
3.183801021,-31.997
3.185754273,-33.646
3.187707525,-35.277
3.189660777,-36.848
3.191614029,-38.539
3.193567282,-40.39
3.195520534,-42.24
3.197473786,-44.038
3.199427038,-45.811
3.20138029,-47.552
3.203333542,-49.254
3.205286795,-50.92
3.207240047,-52.557
3.209193299,-54.178
3.211146551,-55.811
3.213099803,-57.461
3.215053055,-59.114
3.217006308,-60.765
3.21895956,-62.412
3.220912812,-64.053
3.222866064,-65.686
3.224819316,-67.31
3.226772568,-68.918
3.22872582,-70.509
3.230679073,-72.085
3.232632325,-73.646
3.234585577,-75.191
3.236538829,-76.722
3.238492081,-78.239
3.240445333,-79.741
3.242398586,-81.228
3.244351838,-82.699
3.24630509,-84.15
3.248258342,-85.581
3.250211594,-86.99
3.252164846,-88.376
3.254118099,-89.741
3.256071351,-91.083
3.258024603,-92.402
3.259977855,-93.699
3.261931107,-94.977
3.263884359,-96.238
3.265837612,-97.48
3.267790864,-98.702
3.269744116,-99.895
3.271697368,-101.057
3.27365062,-102.194
3.275603872,-103.311
3.277557124,-104.419
3.279510377,-105.529
3.281463629,-106.646
3.283416881,-107.782
3.285370133,-108.952
3.287323385,-110.164
3.289276637,-111.423
3.29122989,-112.723
3.293183142,-114.045
3.295136394,-115.381
3.297089646,-116.729
3.299042898,-118.094
3.30099615,-119.489
3.302949403,-120.917
3.304902655,-122.372
3.306855907,-123.843
3.308809159,-125.32
3.310762411,-126.788
3.312715663,-128.24
3.314668916,-129.651
3.316622168,-130.987
3.31857542,-132.231
3.320528672,-133.386
3.322481924,-134.472
3.324435176,-135.537
3.326388428,-136.61
3.328341681,-137.706
3.330294933,-138.835
3.332248185,-139.993
3.334201437,-141.187
3.336154689,-142.437
3.338107941,-143.756
3.340061194,-145.155
3.342014446,-146.653
3.343967698,-148.265
3.34592095,-150.028
3.347874202,-151.995
3.349827454,-154.191
3.351780707,-156.613
3.353733959,-159.23
3.355687211,-161.978
3.357640463,-164.812
3.359593715,-167.7
3.361546967,-170.613
3.36350022,-173.529
3.365453472,-176.418
3.367406724,-179.246
3.369359976,-181.989
3.371313228,-184.625
3.37326648,-187.124
3.375219732,-189.45
3.377172985,-191.551
3.379126237,-193.358
3.381079489,-194.828
3.383032741,-195.951
3.384985993,-196.747
3.386939245,-197.26
3.388892498,-197.524
3.39084575,-197.559
3.392799002,-197.387
3.394752254,-197.048
3.396705506,-196.58
3.398658758,-196.006
3.400612011,-195.342
3.402565263,-194.588
3.404518515,-193.743
3.406471767,-192.871
3.408425019,-192.04
3.410378271,-191.235
3.412331524,-190.439
3.414284776,-189.575
3.416238028,-188.514
3.41819128,-187.268
3.420144532,-185.834
3.422097784,-184.056
3.424051036,-181.857
3.426004289,-179.33
3.427957541,-176.559
3.429910793,-173.857
3.431864045,-171.548
3.433817297,-169.505
3.435770549,-167.682
3.437723802,-166.201
3.439677054,-164.871
3.441630306,-163.331
3.443583558,-161.183
3.44553681,-157.513
3.447490062,-151.488
3.449443315,-143.173
3.451396567,-132.372
3.453349819,-119.328
3.455303071,-105.667
3.457256323,-92.2
3.459209575,-79.413
3.461162828,-67.719
3.46311608,-55.232
3.465069332,-41.852
3.467022584,-31.624
3.468975836,-29.273
3.470929088,-40.964
3.47288234,-69.789
3.474835593,-109.778
3.476788845,-151.963
3.478742097,-187.176
3.480695349,-207.832
3.482648601,-215.235
3.484601853,-215.204
3.486555106,-212.308
3.488508358,-211.112
3.49046161,-211.864
3.492414862,-211.218
3.494368114,-208.046
3.496321366,-202.073
3.498274619,-194.037
3.500227871,-186.427
3.502181123,-180.481
3.504134375,-176.32
3.506087627,-173.917
3.508040879,-172.836
3.509994132,-172.59
3.511947384,-172.781
3.513900636,-173.081
3.515853888,-173.124
3.51780714,-172.701
3.519760392,-171.861
3.521713644,-170.667
3.523666897,-169.2
3.525620149,-167.649
3.527573401,-166.216
3.529526653,-165.018
3.531479905,-164.156
3.533433157,-163.65
3.53538641,-163.406
3.537339662,-163.345
3.539292914,-163.376
3.541246166,-163.378
3.543199418,-163.272
3.54515267,-163.011
3.547105923,-162.568
3.549059175,-161.94
3.551012427,-161.135
3.552965679,-160.148
3.554918931,-158.989
3.556872183,-157.673
3.558825436,-156.205
3.560778688,-154.587
3.56273194,-152.81
3.564685192,-150.868
3.566638444,-148.781
3.568591696,-146.588
3.570544948,-144.332
3.572498201,-142.043
3.574451453,-139.743
3.576404705,-137.477
3.578357957,-135.311
3.580311209,-133.304
3.582264461,-131.484
3.584217714,-129.83
3.586170966,-128.3
3.588124218,-126.911
3.59007747,-125.647
3.592030722,-124.352
3.593983974,-122.874
3.595937227,-121.176
3.597890479,-119.3
3.599843731,-117.41
3.601796983,-115.217
3.603750235,-111.721
3.605703487,-106.347
3.60765674,-99.694
3.609609992,-94.287
3.611563244,-93.824
3.613516496,-100.266
3.615469748,-111.924
3.617423,-123.3
3.619376252,-128.156
3.621329505,-123.293
3.623282757,-110.567
3.625236009,-96.236
3.627189261,-86.219
3.629142513,-83.283
3.631095765,-86.375
3.633049018,-91.397
3.63500227,-95.211
3.636955522,-96.729
3.638908774,-96.273
3.640862026,-95.254
3.642815278,-94.392
3.644768531,-93.606
3.646721783,-92.8
3.648675035,-91.827
3.650628287,-90.722
3.652581539,-89.666
3.654534791,-88.71
3.656488044,-87.832
3.658441296,-87.037
3.660394548,-86.332
3.6623478,-85.708
3.664301052,-85.146
3.666254304,-84.615
3.668207556,-84.087
3.670160809,-83.566
3.672114061,-83.067
3.674067313,-82.602
3.676020565,-82.171
3.677973817,-81.78
3.679927069,-81.432
3.681880322,-81.136
3.683833574,-80.9
3.685786826,-80.73
3.687740078,-80.629
3.68969333,-80.6
3.691646582,-80.647
3.693599835,-80.778
3.695553087,-80.996
3.697506339,-81.307
3.699459591,-81.715
3.701412843,-82.226
3.703366095,-82.843
3.705319348,-83.571
3.7072726,-84.413
3.709225852,-85.373
3.711179104,-86.453
3.713132356,-87.656
3.715085608,-88.983
3.71703886,-90.436
3.718992113,-92.016
3.720945365,-93.724
3.722898617,-95.558
3.724851869,-97.519
3.726805121,-99.605
3.728758373,-101.815
3.730711626,-104.146
3.732664878,-106.595
3.73461813,-109.159
3.736571382,-111.835
3.738524634,-114.617
3.740477886,-117.501
3.742431139,-120.482
3.744384391,-123.553
3.746337643,-126.711
3.748290895,-129.946
3.750244147,-133.254
3.752197399,-136.627
3.754150652,-140.057
3.756103904,-143.537
3.758057156,-147.057
3.760010408,-150.61
3.76196366,-154.186
3.763916912,-157.776
3.765870164,-161.371
3.767823417,-164.959
3.769776669,-168.533
3.771729921,-172.081
3.773683173,-175.594
3.775636425,-179.063
3.777589677,-182.479
3.77954293,-185.831
3.781496182,-189.112
3.783449434,-192.312
3.785402686,-195.423
3.787355938,-198.437
3.78930919,-201.346
3.791262443,-204.143
3.793215695,-206.82
3.795168947,-209.372
3.797122199,-211.792
3.799075451,-214.074
3.801028703,-216.214
3.802981956,-218.207
3.804935208,-220.048
3.80688846,-221.734
3.808841712,-223.261
3.810794964,-224.628
3.812748216,-225.831
3.814701468,-226.871
3.816654721,-227.745
3.818607973,-228.453
3.820561225,-228.997
3.822514477,-229.379
3.824467729,-229.599
3.826420981,-229.661
3.828374234,-229.569
3.830327486,-229.327
3.832280738,-228.939
3.83423399,-228.41
3.836187242,-227.747
3.838140494,-226.956
3.840093747,-226.042
3.842046999,-225.012
3.844000251,-223.873
3.845953503,-222.632
3.847906755,-221.296
3.849860007,-219.873
3.85181326,-218.37
3.853766512,-216.794
3.855719764,-215.153
3.857673016,-213.455
3.859626268,-211.707
3.86157952,-209.917
3.863532772,-208.091
3.865486025,-206.237
3.867439277,-204.361
3.869392529,-202.47
3.871345781,-200.572
3.873299033,-198.671
3.875252285,-196.773
3.877205538,-194.885
3.87915879,-193.012
3.881112042,-191.157
3.883065294,-189.326
3.885018546,-187.521
3.886971798,-185.746
3.888925051,-184.003
3.890878303,-182.295
3.892831555,-180.622
3.894784807,-178.985
3.896738059,-177.385
3.898691311,-175.822
3.900644564,-174.295
3.902597816,-172.805
3.904551068,-171.348
3.90650432,-169.921
3.908457572,-168.522
3.910410824,-167.148
3.912364076,-165.802
3.914317329,-164.479
3.916270581,-163.171
3.918223833,-161.88
3.920177085,-160.611
3.922130337,-159.37
3.924083589,-158.162
3.926036842,-156.987
3.927990094,-155.827
3.929943346,-154.677
3.931896598,-153.551
3.93384985,-152.437
3.935803102,-151.299
3.937756355,-150.111
3.939709607,-148.841
3.941662859,-147.484
3.943616111,-146.081
3.945569363,-144.644
3.947522615,-143.129
3.949475868,-141.576
3.95142912,-140.148
3.953382372,-138.89
3.955335624,-137.747
3.957288876,-136.741
3.959242128,-135.708
3.96119538,-134.939
3.963148633,-135.467
3.965101885,-137.14
3.967055137,-138.986
3.969008389,-139.51
3.970961641,-135.799
3.972914893,-127.85
3.974868146,-118.637
3.976821398,-111.06
3.97877465,-109.247
3.980727902,-113.709
3.982681154,-120.49
3.984634406,-126.516
3.986587659,-128.545
3.988540911,-125.811
3.990494163,-121.257
3.992447415,-116.756
3.994400667,-113.509
3.996353919,-111.968
3.998307172,-110.939
4.000260424,-109.826
4.002213676,-108.675
4.004166928,-107.44
4.00612018,-106.3
4.008073432,-105.318
4.010026684,-104.343
4.011979937,-103.329
4.013933189,-102.314
4.015886441,-101.308
4.017839693,-100.311
4.019792945,-99.333
4.021746197,-98.377
4.02369945,-97.443
4.025652702,-96.543
4.027605954,-95.679
4.029559206,-94.837
4.031512458,-94.02
4.03346571,-93.236
4.035418963,-92.478
4.037372215,-91.738
4.039325467,-91.004
4.041278719,-90.249
4.043231971,-89.452
4.045185223,-88.591
4.047138476,-87.63
4.049091728,-86.544
4.05104498,-85.334
4.052998232,-84.011
4.054951484,-82.615
4.056904736,-81.196
4.058857988,-79.786
4.060811241,-78.409
4.062764493,-77.079
4.064717745,-75.801
4.066670997,-74.594
4.068624249,-73.48
4.070577501,-72.475
4.072530754,-71.613
4.074484006,-70.927
4.076437258,-70.453
4.07839051,-70.25
4.080343762,-70.358
4.082297014,-70.78
4.084250267,-71.5
4.086203519,-72.462
4.088156771,-73.579
4.090110023,-74.786
4.092063275,-76.025
4.094016527,-77.246
4.09596978,-78.425
4.097923032,-79.532
4.099876284,-80.539
4.101829536,-81.432
4.103782788,-82.181
4.10573604,-82.755
4.107689292,-83.128
4.109642545,-83.248
4.111595797,-83.073
4.113549049,-82.595
4.115502301,-81.825
4.117455553,-80.819
4.119408805,-79.684
4.121362058,-78.511
4.12331531,-77.385
4.125268562,-76.374
4.127221814,-75.51
4.129175066,-74.811
4.131128318,-74.284
4.133081571,-73.913
4.135034823,-73.677
4.136988075,-73.56
4.138941327,-73.533
4.140894579,-73.584
4.142847831,-73.701
4.144801084,-73.83
4.146754336,-73.892
4.148707588,-73.759
4.15066084,-73.261
4.152614092,-72.211
4.154567344,-70.411
4.156520596,-67.734
4.158473849,-64.147
4.160427101,-59.702
4.162380353,-54.562
4.164333605,-48.903
4.166286857,-42.822
4.168240109,-36.419
4.170193362,-29.822
4.172146614,-22.924
4.174099866,-15.431
4.176053118,-6.961
4.17800637,3.028
4.179959622,14.903
4.181912875,28.654
4.183866127,44.204
4.185819379,61.417
4.187772631,79.474
4.189725883,97.05
4.191679135,112.848
4.193632388,125.29
4.19558564,133.739
4.197538892,138.754
4.199492144,139.575
4.201445396,135.065
4.203398648,124.034
4.2053519,104.443
4.207305153,78.361
4.209258405,50.767
4.211211657,26.422
4.213164909,11.263
4.215118161,6.152
4.217071413,7.102
4.219024666,10.513
4.220977918,11.618
4.22293117,8.953
4.224884422,5.243
4.226837674,2.079
4.228790926,0.706
4.230744179,1.15
4.232697431,1.521
4.234650683,1.118
4.236603935,0.383
4.238557187,-0.129
4.240510439,0.215
4.242463692,1.586
4.244416944,3.695
4.246370196,6.406
4.248323448,9.831
4.2502767,13.957
4.252229952,18.562
4.254183204,23.314
4.256136457,27.907
4.258089709,32.196
4.260042961,36.196
4.261996213,39.924
4.263949465,43.323
4.265902717,46.356
4.26785597,49.014
4.269809222,51.342
4.271762474,53.427
4.273715726,55.312
4.275668978,57.015
4.27762223,58.591
4.279575483,60.068
4.281528735,61.387
4.283481987,62.497
4.285435239,63.47
4.287388491,64.352
4.289341743,65.197
4.291294996,66.196
4.293248248,66.794
4.2952015,66.56
4.297154752,66.309
4.299108004,66.241
4.301061256,67.786
4.303014508,72.539
4.304967761,78.406
4.306921013,84.582
4.308874265,89.646
4.310827517,90.45
4.312780769,89.062
4.314734021,86.017
4.316687274,80.907
4.318640526,77.555
4.320593778,75.833
4.32254703,76.205
4.324500282,81.03
4.326453534,87.465
4.328406787,94.125
4.330360039,100.482
4.332313291,104.426
4.334266543,107.151
4.336219795,109.619
4.338173047,112.063
4.3401263,115.958
4.342079552,121.379
4.344032804,127.443
4.345986056,131.332
4.347939308,128.612
4.34989256,116.811
4.351845812,97.184
4.353799065,76.74
4.355752317,64.674
4.357705569,67.546
4.359658821,86.479
4.361612073,114.306
4.363565325,140.989
4.365518578,157.68
4.36747183,159.464
4.369425082,149.387
4.371378334,133.913
4.373331586,120.158
4.375284838,113.646
4.377238091,114.669
4.379191343,120.672
4.381144595,128.13
4.383097847,134.151
4.385051099,138.076
4.387004351,140.533
4.388957604,142.484
4.390910856,144.433
4.392864108,146.321
4.39481736,147.956
4.396770612,149.214
4.398723864,150.196
4.400677116,151.084
4.402630369,151.956
4.404583621,152.826
4.406536873,153.685
4.408490125,154.501
4.410443377,155.251
4.412396629,155.905
4.414349882,156.42
4.416303134,156.766
4.418256386,156.932
4.420209638,156.919
4.42216289,156.722
4.424116142,156.337
4.426069395,155.76
4.428022647,154.988
4.429975899,154.019
4.431929151,152.852
4.433882403,151.481
4.435835655,149.906
4.437788908,148.127
4.43974216,146.148
4.441695412,143.973
4.443648664,141.606
4.445601916,139.052
4.447555168,136.315
4.44950842,133.402
4.451461673,130.321
4.453414925,127.079
4.455368177,123.684
4.457321429,120.146
4.459274681,116.473
4.461227933,112.677
4.463181186,108.767
4.465134438,104.756
4.46708769,100.655
4.469040942,96.475
4.470994194,92.228
4.472947446,87.926
4.474900699,83.58
4.476853951,79.205
4.478807203,74.81
4.480760455,70.409
4.482713707,66.014
4.484666959,61.635
4.486620212,57.286
4.488573464,52.976
4.490526716,48.718
4.492479968,44.521
4.49443322,40.395
4.496386472,36.352
4.498339724,32.399
4.500292977,28.547
4.502246229,24.803
4.504199481,21.175
4.506152733,17.671
4.508105985,14.297
4.510059237,11.06
4.51201249,7.966
4.513965742,5.018
4.515918994,2.222
4.517872246,-0.418
4.519825498,-2.901
4.52177875,-5.223
4.523732003,-7.382
4.525685255,-9.379
4.527638507,-11.212
4.529591759,-12.881
4.531545011,-14.387
4.533498263,-15.733
4.535451516,-16.919
4.537404768,-17.947
4.53935802,-18.822
4.541311272,-19.545
4.543264524,-20.122
4.545217776,-20.557
4.547171028,-20.854
4.549124281,-21.019
4.551077533,-21.056
4.553030785,-20.972
4.554984037,-20.772
4.556937289,-20.464
4.558890541,-20.052
4.560843794,-19.545
4.562797046,-18.948
4.564750298,-18.268
4.56670355,-17.515
4.568656802,-16.695
4.570610054,-15.819
4.572563307,-14.892
4.574516559,-13.922
4.576469811,-12.916
4.578423063,-11.881
4.580376315,-10.824
4.582329567,-9.751
4.58428282,-8.67
4.586236072,-7.584
4.588189324,-6.502
4.590142576,-5.43
4.592095828,-4.375
4.59404908,-3.345
4.596002332,-2.346
4.597955585,-1.38
4.599908837,-0.451
4.601862089,0.439
4.603815341,1.286
4.605768593,2.081
4.607721845,2.822
4.609675098,3.502
4.61162835,4.119
4.613581602,4.669
4.615534854,5.145
4.617488106,5.544
4.619441358,5.868
4.621394611,6.113
4.623347863,6.279
4.625301115,6.369
4.627254367,6.38
4.629207619,6.316
4.631160871,6.183
4.633114124,5.968
4.635067376,5.667
4.637020628,5.317
4.63897388,4.948
4.640927132,4.593
4.642880384,4.276
4.644833636,3.968
4.646786889,3.64
4.648740141,3.314
4.650693393,3.022
4.652646645,2.717
4.654599897,2.3
4.656553149,1.753
4.658506402,1.094
4.660459654,0.411
4.662412906,-0.017
4.664366158,-0.565
4.66631941,-1.723
4.668272662,-2.997
4.670225915,-4.254
4.672179167,-4.138
4.674132419,-1.22
4.676085671,2.598
4.678038923,5.951
4.679992175,6.764
4.681945428,2.703
4.68389868,-3.713
4.685851932,-10.493
4.687805184,-16.412
4.689758436,-19.295
4.691711688,-20.327
4.69366494,-20.615
4.695618193,-19.88
4.697571445,-18.897
4.699524697,-17.708
4.701477949,-16.011
4.703431201,-14.023
4.705384453,-11.803
4.707337706,-9.58
4.709290958,-7.735
4.71124421,-6.631
4.713197462,-6.518
4.715150714,-6.662
4.717103966,-6.314
4.719057219,-5.946
4.721010471,-5.66
4.722963723,-6.677
4.724916975,-10.939
4.726870227,-17.477
4.728823479,-24.752
4.730776732,-30.153
4.732729984,-29.615
4.734683236,-22.369
4.736636488,-10.707
4.73858974,1.141
4.740542992,7.991
4.742496244,6.91
4.744449497,-0.591
4.746402749,-10.098
4.748356001,-17.552
4.750309253,-19.991
4.752262505,-17.72
4.754215757,-13.693
4.75616901,-9.806
4.758122262,-7.34
4.760075514,-6.465
4.762028766,-6.011
4.763982018,-5.548
4.76593527,-5.087
4.767888523,-4.582
4.769841775,-4.234
4.771795027,-4.067
4.773748279,-3.893
4.775701531,-3.652
4.777654783,-3.325
4.779608036,-2.85
4.781561288,-2.21
4.78351454,-1.423
4.785467792,-0.523
4.787421044,0.424
4.789374296,1.369
4.791327548,2.313
4.793280801,3.279
4.795234053,4.278
4.797187305,5.291
4.799140557,6.28
4.801093809,7.225
4.803047061,8.122
4.805000314,8.98
4.806953566,9.778
4.808906818,10.415
4.81086007,10.814
4.812813322,11.003
4.814766574,11.114
4.816719827,11.345
4.818673079,11.807
4.820626331,12.413
4.822579583,13.027
4.824532835,13.629
4.826486087,14.157
4.82843934,14.485
4.830392592,14.316
4.832345844,13.153
4.834299096,10.785
4.836252348,7.435
4.8382056,3.518
4.840158852,-0.541
4.842112105,-4.339
4.844065357,-7.59
4.846018609,-9.807
4.847971861,-10.192
4.849925113,-8.381
4.851878365,-4.5
4.853831618,1.012
4.85578487,7.423
4.857738122,14.144
4.859691374,20.885
4.861644626,27.206
4.863597878,32.396
4.865551131,36.065
4.867504383,38.097
4.869457635,38.652
4.871410887,38.384
4.873364139,37.779
4.875317391,36.988
4.877270644,36.131
4.879223896,35.39
4.881177148,35.033
4.8831304,35.342
4.885083652,36.454
4.887036904,38.28
4.888990156,40.118
4.890943409,41.509
4.892896661,43.21
4.894849913,45.538
4.896803165,49.821
4.898756417,57.366
4.900709669,66.086
4.902662922,74.74
4.904616174,81.575
4.906569426,84.194
4.908522678,84.87
4.91047593,85.465
4.912429182,87.463
4.914382435,93.57
4.916335687,102.833
4.918288939,114.118
4.920242191,126.832
4.922195443,138.912
4.924148695,150.301
4.926101948,161.466
4.9280552,172.633
4.930008452,185.198
4.931961704,198.134
4.933914956,208.514
4.935868208,212.94
4.93782146,206.424
4.939774713,186.953
4.941727965,156.238
4.943681217,118.025
4.945634469,79.81
4.947587721,49.127
4.949540973,30.404
4.951494226,25.054
4.953447478,29.936
4.95540073,38.643
4.957353982,45.976
4.959307234,49.578
4.961260486,49.685
4.963213739,49.032
4.965166991,49.692
4.967120243,51.543
4.969073495,53.692
4.971026747,54.996
4.972979999,54.998
4.974933252,54.257
4.976886504,53.562
4.978839756,53.3
4.980793008,53.518
4.98274626,54.262
4.984699512,55.509
4.986652764,57.204
4.988606017,59.27
4.990559269,61.435
4.992512521,63.38
4.994465773,64.978
4.996419025,66.205
4.998372277,67.05
5.00032553,67.556
5.002278782,67.735
5.004232034,67.589
5.006185286,67.208
5.008138538,66.704
5.01009179,66.163
5.012045043,65.66
5.013998295,65.228
5.015951547,64.871
5.017904799,64.612
5.019858051,64.48
5.021811303,64.494
5.023764556,64.669
5.025717808,65.007
5.02767106,65.493
5.029624312,66.119
5.031577564,66.882
5.033530816,67.772
5.035484068,68.782
5.037437321,69.89
5.039390573,71.071
5.041343825,72.297
5.043297077,73.54
5.045250329,74.784
5.047203581,76.015
5.049156834,77.222
5.051110086,78.397
5.053063338,79.532
5.05501659,80.622
5.056969842,81.669
5.058923094,82.677
5.060876347,83.649
5.062829599,84.586
5.064782851,85.489
5.066736103,86.357
5.068689355,87.194
5.070642607,88.003
5.07259586,88.79
5.074549112,89.56
5.076502364,90.318
5.078455616,91.068
5.080408868,91.812
5.08236212,92.556
5.084315372,93.3
5.086268625,94.048
5.088221877,94.801
5.090175129,95.56
5.092128381,96.325
5.094081633,97.098
5.096034885,97.88
5.097988138,98.673
5.09994139,99.483
5.101894642,100.312
5.103847894,101.162
5.105801146,102.034
5.107754398,102.928
5.109707651,103.844
5.111660903,104.787
5.113614155,105.754
5.115567407,106.732
5.117520659,107.714
5.119473911,108.688
5.121427164,109.649
5.123380416,110.61
5.125333668,111.569
5.12728692,112.507
5.129240172,113.431
5.131193424,114.368
5.133146676,115.339
5.135099929,116.365
5.137053181,117.444
5.139006433,118.53
5.140959685,119.597
5.142912937,120.678
5.144866189,121.719
5.146819442,122.541
5.148772694,123.103
5.150725946,123.455
5.152679198,123.561
5.15463245,123.575
5.156585702,123.197
5.158538955,121.411
5.160492207,118.41
5.162445459,115.152
5.164398711,113.133
5.166351963,115.222
5.168305215,121.33
5.170258468,128.547
5.17221172,133.9
5.174164972,133.185
5.176118224,126.077
5.178071476,116.482
5.180024728,107.412
5.18197798,102.293
5.183931233,101.28
5.185884485,100.965
5.187837737,100.226
5.189790989,98.068
5.191744241,95.368
5.193697493,94.849
5.195650746,95.381
5.197603998,95.795
5.19955725,94.459
5.201510502,88.893
5.203463754,81.101
5.205417006,72.987
5.207370259,65.799
5.209323511,61.483
5.211276763,58.652
5.213230015,55.904
5.215183267,52.931
5.217136519,48.871
5.219089772,44.226
5.221043024,39.63
5.222996276,34.966
5.224949528,30.341
5.22690278,25.732
5.228856032,21.018
5.230809284,16.301
5.232762537,11.663
5.234715789,7.093
5.236669041,2.603
5.238622293,-1.789
5.240575545,-6.078
5.242528797,-10.259
5.24448205,-14.325
5.246435302,-18.28
5.248388554,-22.132
5.250341806,-25.866
5.252295058,-29.461
5.25424831,-32.898
5.256201563,-36.162
5.258154815,-39.244
5.260108067,-42.148
5.262061319,-44.877
5.264014571,-47.43
5.265967823,-49.828
5.267921076,-52.111
5.269874328,-54.331
5.27182758,-56.524
5.273780832,-58.701
5.275734084,-60.841
5.277687336,-62.912
5.279640588,-64.899
5.281593841,-66.716
5.283547093,-68.175
5.285500345,-69.159
5.287453597,-69.667
5.289406849,-69.76
5.291360101,-69.614
5.293313354,-68.955
5.295266606,-67.095
5.297219858,-63.908
5.29917311,-59.948
5.301126362,-57.404
5.303079614,-59.331
5.305032867,-67.303
5.306986119,-80.729
5.308939371,-95.326
5.310892623,-105.118
5.312845875,-105.472
5.314799127,-94.462
5.31675238,-75.5
5.318705632,-54.858
5.320658884,-38.974
5.322612136,-33.281
5.324565388,-38.622
5.32651864,-52.302
5.328471892,-70.198
5.330425145,-86.419
5.332378397,-96.367
5.334331649,-98.55
5.336284901,-92.838
5.338238153,-82.22
5.340191405,-71.598
5.342144658,-63.795
5.34409791,-60.842
5.346051162,-62.474
5.348004414,-65.823
5.349957666,-69.211
5.351910918,-71.535
5.353864171,-72.436
5.355817423,-72.916
5.357770675,-73.408
5.359723927,-73.882
5.361677179,-74.369
5.363630431,-74.693
5.365583684,-74.826
5.367536936,-74.953
5.369490188,-75.156
5.37144344,-75.43
5.373396692,-75.783
5.375349944,-76.207
5.377303196,-76.682
5.379256449,-77.206
5.381209701,-77.769
5.383162953,-78.335
5.385116205,-78.883
5.387069457,-79.437
5.389022709,-80.01
5.390975962,-80.611
5.392929214,-81.255
5.394882466,-81.922
5.396835718,-82.583
5.39878897,-83.252
5.400742222,-83.953
5.402695475,-84.61
5.404648727,-85.133
5.406601979,-85.569
5.408555231,-85.909
5.410508483,-86.134
5.412461735,-86.426
5.414414988,-86.287
5.41636824,-85.234
5.418321492,-83.952
5.420274744,-82.642
5.422227996,-82.563
5.424181248,-85.223
5.4261345,-88.942
5.428087753,-92.6
5.430041005,-94.538
5.431994257,-92.468
5.433947509,-88.403
5.435900761,-84.063
5.437854013,-80.621
5.439807266,-80.012
5.441760518,-80.884
5.44371377,-81.85
5.445667022,-82.593
5.447620274,-82.277
5.449573526,-81.405
5.451526779,-80.577
5.453480031,-79.651
5.455433283,-78.712
5.457386535,-77.611
5.459339787,-76.131
5.461293039,-74.475
5.463246292,-72.724
5.465199544,-70.79
5.467152796,-68.93
5.469106048,-66.843
5.4710593,-64.062
5.473012552,-61.259
5.474965804,-58.686
5.476919057,-57.447
5.478872309,-59.574
5.480825561,-64.593
5.482778813,-71.014
5.484732065,-75.932
5.486685317,-74.961
5.48863857,-66.59
5.490591822,-52.99
5.492545074,-39.043
5.494498326,-30.474
5.496451578,-31.025
5.49840483,-39.366
5.500358083,-50.296
5.502311335,-59.152
5.504264587,-62.346
5.506217839,-59.978
5.508171091,-55.58
5.510124343,-51.433
5.512077596,-49.044
5.514030848,-48.671
5.5159841,-48.885
5.517937352,-49.09
5.519890604,-49.284
5.521843856,-49.395
5.523797108,-49.653
5.525750361,-50.096
5.527703613,-50.512
5.529656865,-50.831
5.531610117,-51.059
5.533563369,-51.168
5.535516621,-51.162
5.537469874,-51.067
5.539423126,-50.903
5.541376378,-50.698
5.54332963,-50.495
5.545282882,-50.329
5.547236134,-50.237
5.549189387,-50.266
5.551142639,-50.472
5.553095891,-50.887
5.555049143,-51.518
5.557002395,-52.371
5.558955647,-53.448
5.5609089,-54.73
5.562862152,-56.193
5.564815404,-57.806
5.566768656,-59.496
5.568721908,-61.196
5.57067516,-62.862
5.572628412,-64.412
5.574581665,-65.76
5.576534917,-66.928
5.578488169,-67.895
5.580441421,-68.474
5.582394673,-68.529
5.584347925,-67.948
5.586301178,-66.462
5.58825443,-64.578
5.590207682,-62.773
5.592160934,-60.252
5.594114186,-56.795
5.596067438,-51.106
5.598020691,-41.744
5.599973943,-30.817
5.601927195,-19.716
5.603880447,-10.269
5.605833699,-4.959
5.607786951,-1.682
5.609740204,1.361
5.611693456,5.315
5.613646708,12.317
5.61559996,21.312
5.617553212,30.969
5.619506464,40.899
5.621459716,50.061
5.623412969,58.449
5.625366221,66.13
5.627319473,72.542
5.629272725,77.1
5.631225977,78.838
5.633179229,77.141
5.635132482,71.785
5.637085734,62.654
5.639038986,50.356
5.640992238,35.759
5.64294549,19.702
5.644898742,3.438
5.646851995,-11.769
5.648805247,-25.14
5.650758499,-35.872
5.652711751,-43.206
5.654665003,-47.163
5.656618255,-48.025
5.658571508,-46.284
5.66052476,-42.967
5.662478012,-38.913
5.664431264,-34.579
5.666384516,-30.551
5.668337768,-27.441
5.67029102,-25.499
5.672244273,-24.769
5.674197525,-24.885
5.676150777,-25.232
5.678104029,-25.549
5.680057281,-25.684
5.682010533,-25.653
5.683963786,-24.871
5.685917038,-21.978
5.68787029,-17.239
5.689823542,-11.983
5.691776794,-8.509
5.693730046,-10.697
5.695683299,-18.298
5.697636551,-27.597
5.699589803,-34.795
5.701543055,-34.536
5.703496307,-26.539
5.705449559,-15.721
5.707402812,-5.852
5.709356064,-1.079
5.711309316,-2.039
5.713262568,-4.998
5.71521582,-7.71
5.717169072,-8.612
5.719122324,-7.267
5.721075577,-5.207
5.723028829,-3.11
5.724982081,-0.932
5.726935333,1.27
5.728888585,3.719
5.730841837,6.449
5.73279509,9.232
5.734748342,11.977
5.736701594,14.686
5.738654846,17.332
5.740608098,19.888
5.74256135,22.352
5.744514603,24.729
5.746467855,27.037
5.748421107,29.312
5.750374359,31.569
5.752327611,33.792
5.754280863,35.972
5.756234116,38.109
5.758187368,40.197
5.76014062,42.238
5.762093872,44.233
5.764047124,46.18
5.766000376,48.084
5.767953628,49.953
5.769906881,51.797
5.771860133,53.621
5.773813385,55.433
5.775766637,57.238
5.777719889,59.042
5.779673141,60.847
5.781626394,62.658
5.783579646,64.478
5.785532898,66.31
5.78748615,68.16
5.789439402,70.032
5.791392654,71.929
5.793345907,73.855
5.795299159,75.813
5.797252411,77.806
5.799205663,79.834
5.801158915,81.898
5.803112167,83.998
5.80506542,86.132
5.807018672,88.298
5.808971924,90.493
5.810925176,92.713
5.812878428,94.957
5.81483168,97.217
5.816784932,99.488
5.818738185,101.764
5.820691437,104.037
5.822644689,106.301
5.824597941,108.55
5.826551193,110.773
5.828504445,112.958
5.830457698,115.102
5.83241095,117.197
5.834364202,119.236
5.836317454,121.215
5.838270706,123.118
5.840223958,124.924
5.842177211,126.63
5.844130463,128.234
5.846083715,129.706
5.848036967,131.023
5.849990219,132.166
5.851943471,133.107
5.853896724,133.853
5.855849976,134.423
5.857803228,134.796
5.85975648,134.937
5.861709732,134.914
5.863662984,134.81
5.865616236,134.569
5.867569489,134.194
5.869522741,133.699
5.871475993,132.897
5.873429245,132.291
5.875382497,132.374
5.877335749,132.446
5.879289002,132.299
5.881242254,130.647
5.883195506,125.954
5.885148758,119.931
5.88710201,113.721
5.889055262,109.026
5.891008515,108.178
5.892961767,109.128
5.894915019,110.142
5.896868271,110.034
5.898821523,106.839
5.900774775,101.98
5.902728028,96.899
5.90468128,91.925
5.906634532,87.942
5.908587784,84.456
5.910541036,80.827
5.912494288,77.191
5.91444754,73.476
5.916400793,69.737
5.918354045,66.118
5.920307297,62.542
5.922260549,58.953
5.924213801,55.382
5.926167053,51.845
5.928120306,48.343
5.930073558,44.888
5.93202681,41.493
5.933980062,38.169
5.935933314,34.936
5.937886566,31.818
5.939839819,28.814
5.941793071,25.924
5.943746323,23.156
5.945699575,20.515
5.947652827,18.004
5.949606079,15.629
5.951559332,13.39
5.953512584,11.287
5.955465836,9.324
5.957419088,7.501
5.95937234,5.82
5.961325592,4.279
5.963278844,2.878
5.965232097,1.615
5.967185349,0.488
5.969138601,-0.505
5.971091853,-1.369
5.973045105,-2.105
5.974998357,-2.719
5.97695161,-3.213
5.978904862,-3.593
5.980858114,-3.862
5.982811366,-4.026
5.984764618,-4.09
5.98671787,-4.058
5.988671123,-3.937
5.990624375,-3.732
5.992577627,-3.449
5.994530879,-3.093
5.996484131,-2.671
5.998437383,-2.189
6.000390636,-1.651
6.002343888,-1.064
6.00429714,-0.433
6.006250392,0.237
6.008203644,0.942
6.010156896,1.676
6.012110148,2.435
6.014063401,3.215
6.016016653,4.01
6.017969905,4.816
6.019923157,5.631
6.021876409,6.451
6.023829661,7.274
6.025782914,8.098
6.027736166,8.919
6.029689418,9.734
6.03164267,10.543
6.033595922,11.346
6.035549174,12.137
6.037502427,12.91
6.039455679,13.66
6.041408931,14.38
6.043362183,15.073
6.045315435,15.747
6.047268687,16.393
6.04922194,17.002
6.051175192,17.593
6.053128444,18.177
6.055081696,18.766
6.057034948,19.375
6.0589882,19.991
6.060941452,20.585
6.062894705,21.173
6.064847957,21.783
6.066801209,22.341
6.068754461,22.762
6.070707713,23.097
6.072660965,23.341
6.074614218,23.48
6.07656747,23.698
6.078520722,23.497
6.080473974,22.394
6.082427226,21.083
6.084380478,19.776
6.086333731,19.745
6.088286983,22.517
6.090240235,26.404
6.092193487,30.283
6.094146739,32.482
6.096099991,30.703
6.098053244,26.981
6.100006496,23.04
6.101959748,20.065
6.103913,20.012
6.105866252,21.489
6.107819504,23.088
6.109772756,24.499
6.111726009,24.863
6.113679261,24.685
6.115632513,24.612
6.117585765,24.527
6.119539017,24.516
6.121492269,24.539
6.123445522,24.465
6.125398774,24.382
6.127352026,24.365
6.129305278,24.398
6.13125853,24.486
6.133211782,24.641
6.135165035,24.858
6.137118287,25.125
6.139071539,25.437
6.141024791,25.778
6.142978043,26.131
6.144931295,26.495
6.146884548,26.864
6.1488378,27.231
6.150791052,27.599
6.152744304,27.981
6.154697556,28.39
6.156650808,28.834
6.15860406,29.312
6.160557313,29.812
6.162510565,30.321
6.164463817,30.838
6.166417069,31.371
6.168370321,31.93
6.170323573,32.518
6.172276826,33.137
6.174230078,33.795
6.17618333,34.51
6.178136582,35.307
6.180089834,36.195
6.182043086,37.157
6.183996339,38.156
6.185949591,39.152
6.187902843,40.123
6.189856095,41.06
6.191809347,41.963
6.193762599,42.828
6.195715852,43.642
6.197669104,44.384
6.199622356,45.038
6.201575608,45.597
6.20352886,46.048
6.205482112,46.372
6.207435364,46.53
6.209388617,46.478
6.211341869,46.199
6.213295121,45.712
6.215248373,45.065
6.217201625,44.307
6.219154877,43.469
6.22110813,42.575
6.223061382,41.636
6.225014634,40.677
6.226967886,39.729
6.228921138,38.815
6.23087439,37.957
6.232827643,37.169
6.234780895,36.47
6.236734147,35.894
6.238687399,35.492
6.240640651,35.308
6.242593903,35.366
6.244547156,35.654
6.246500408,36.128
6.24845366,36.749
6.250406912,37.492
6.252360164,38.333
6.254313416,39.258
6.256266668,40.24
6.258219921,41.254
6.260173173,42.296
6.262126425,43.367
6.264079677,44.473
6.266032929,45.61
6.267986181,46.752
6.269939434,47.878
6.271892686,49.001
6.273845938,50.159
6.27579919,51.426
6.277752442,52.894
6.279705694,54.606
6.281658947,56.619
6.283612199,59.029
6.285565451,61.855
6.287518703,65.105
6.289471955,68.713
6.291425207,72.463
6.29337846,76.267
6.295331712,80.173
6.297284964,84.2
6.299238216,88.41
6.301191468,92.92
6.30314472,97.77
6.305097972,103.221
6.307051225,109.734
6.309004477,117.33
6.310957729,125.798
6.312910981,134.836
6.314864233,143.86
6.316817485,152.409
6.318770738,160.07
6.32072399,165.952
6.322677242,169.079
6.324630494,169.09
6.326583746,165.857
6.328536998,159.548
6.330490251,150.767
6.332443503,139.785
6.334396755,127.035
6.336350007,113.649
6.338303259,100.669
6.340256511,88.69
6.342209764,78.224
6.344163016,69.42
6.346116268,62.169
6.34806952,56.824
6.350022772,53.408
6.351976024,51.29
6.353929276,50.033
6.355882529,49.371
6.357835781,49.028
6.359789033,49.027
6.361742285,49.386
6.363695537,49.719
6.365648789,49.942
6.367602042,50.374
6.369555294,51.146
6.371508546,52.357
6.373461798,54.069
6.37541505,56.114
6.377368302,58.393
6.379321555,61.012
6.381274807,63.896
6.383228059,66.806
6.385181311,69.595
6.387134563,72.106
6.389087815,74.242
6.391041068,76.041
6.39299432,77.5
6.394947572,78.575
6.396900824,79.292
6.398854076,79.708
6.400807328,79.874
6.40276058,79.868
6.404713833,79.742
6.406667085,79.518
6.408620337,79.25
6.410573589,78.98
6.412526841,78.743
6.414480093,78.582
6.416433346,78.52
6.418386598,78.573
6.42033985,78.76
6.422293102,79.089
6.424246354,79.557
6.426199606,80.162
6.428152859,80.893
6.430106111,81.736
6.432059363,82.683
6.434012615,83.718
6.435965867,84.827
6.437919119,85.991
6.439872372,87.188
6.441825624,88.403
6.443778876,89.628
6.445732128,90.853
6.44768538,92.075
6.449638632,93.29
6.451591884,94.495
6.453545137,95.695
6.455498389,96.897
6.457451641,98.106
6.459404893,99.328
6.461358145,100.566
6.463311397,101.824
6.46526465,103.106
6.467217902,104.418
6.469171154,105.764
6.471124406,107.151
6.473077658,108.58
6.47503091,110.053
6.476984163,111.572
6.478937415,113.137
6.480890667,114.746
6.482843919,116.397
6.484797171,118.087
6.486750423,119.81
6.488703676,121.563
6.490656928,123.34
6.49261018,125.137
6.494563432,126.95
6.496516684,128.773
6.498469936,130.599
6.500423188,132.423
6.502376441,134.238
6.504329693,136.038
6.506282945,137.813
6.508236197,139.556
6.510189449,141.259
6.512142701,142.911
6.514095954,144.504
6.516049206,146.028
6.518002458,147.475
6.51995571,148.833
6.521908962,150.094
6.523862214,151.247
6.525815467,152.283
6.527768719,153.193
6.529721971,153.965
6.531675223,154.593
6.533628475,155.066
6.535581727,155.378
6.53753498,155.52
6.539488232,155.486
6.541441484,155.271
6.543394736,154.867
6.545347988,154.272
6.54730124,153.481
6.549254492,152.491
6.551207745,151.299
6.553160997,149.904
6.555114249,148.305
6.557067501,146.502
6.559020753,144.496
6.560974005,142.289
6.562927258,139.882
6.56488051,137.28
6.566833762,134.485
6.568787014,131.503
6.570740266,128.34
6.572693518,125
6.574646771,121.492
6.576600023,117.823
6.578553275,114.002
6.580506527,110.037
6.582459779,105.939
6.584413031,101.717
6.586366284,97.384
6.588319536,92.949
6.590272788,88.425
6.59222604,83.823
6.594179292,79.155
6.596132544,74.433
6.598085796,69.67
6.600039049,64.876
6.601992301,60.064
6.603945553,55.245
6.605898805,50.429
6.607852057,45.629
6.609805309,40.855
6.611758562,36.116
6.613711814,31.423
6.615665066,26.784
6.617618318,22.209
6.61957157,17.705
6.621524822,13.28
6.623478075,8.941
6.625431327,4.695
6.627384579,0.549
6.629337831,-3.493
6.631291083,-7.425
6.633244335,-11.242
6.635197588,-14.941
6.63715084,-18.518
6.639104092,-21.97
6.641057344,-25.296
6.643010596,-28.493
6.644963848,-31.562
6.6469171,-34.503
6.648870353,-37.315
6.650823605,-40.001
6.652776857,-42.563
6.654730109,-45.001
6.656683361,-47.321
6.658636613,-49.523
6.660589866,-51.613
6.662543118,-53.594
6.66449637,-55.47
6.666449622,-57.245
6.668402874,-58.924
6.670356126,-60.512
6.672309379,-62.012
6.674262631,-63.431
6.676215883,-64.773
6.678169135,-66.042
6.680122387,-67.244
6.682075639,-68.382
6.684028892,-69.463
6.685982144,-70.489
6.687935396,-71.467
6.689888648,-72.401
6.6918419,-73.294
6.693795152,-74.151
6.695748404,-74.98
6.697701657,-75.787
6.699654909,-76.578
6.701608161,-77.359
6.703561413,-78.127
6.705514665,-78.888
6.707467917,-79.651
6.70942117,-80.415
6.711374422,-81.175
6.713327674,-81.927
6.715280926,-82.657
6.717234178,-83.369
6.71918743,-84.093
6.721140683,-84.843
6.723093935,-85.612
6.725047187,-86.416
6.727000439,-87.279
6.728953691,-88.226
6.730906943,-89.309
6.732860196,-90.52
6.734813448,-91.773
6.7367667,-93.023
6.738719952,-94.292
6.740673204,-95.517
6.742626456,-96.556
6.744579708,-97.394
6.746532961,-98.038
6.748486213,-98.513
6.750439465,-99.223
6.752392717,-99.837
6.754345969,-99.102
6.756299221,-97.306
6.758252474,-95.353
6.760205726,-95.336
6.762158978,-101.819
6.76411223,-114.431
6.766065482,-128.625
6.768018734,-139.322
6.769971987,-138.356
6.771925239,-125.315
6.773878491,-108.195
6.775831743,-93.945
6.777784995,-91.244
6.779738247,-101.423
6.7816915,-116.461
6.783644752,-130.681
6.785598004,-138.706
6.787551256,-139.607
6.789504508,-138.689
6.79145776,-138.116
6.793411012,-139.025
6.795364265,-140.772
6.797317517,-140.246
6.799270769,-138.351
6.801224021,-136.451
6.803177273,-136.196
6.805130525,-140.03
6.807083778,-146.017
6.80903703,-152.263
6.810990282,-157.521
6.812943534,-159.883
6.814896786,-160.702
6.816850038,-161.334
6.818803291,-162.08
6.820756543,-163.814
6.822709795,-166.054
6.824663047,-168.188
6.826616299,-170.346
6.828569551,-172.423
6.830522804,-174.453
6.832476056,-176.566
6.834429308,-178.673
6.83638256,-180.7
6.838335812,-182.662
6.840289064,-184.555
6.842242316,-186.364
6.844195569,-188.088
6.846148821,-189.728
6.848102073,-191.282
6.850055325,-192.759
6.852008577,-194.171
6.853961829,-195.507
6.855915082,-196.76
6.857868334,-197.932
6.859821586,-199.019
6.861774838,-200.021
6.86372809,-200.94
6.865681342,-201.774
6.867634595,-202.521
6.869587847,-203.186
6.871541099,-203.772
6.873494351,-204.282
6.875447603,-204.722
6.877400855,-205.098
6.879354108,-205.416
6.88130736,-205.684
6.883260612,-205.909
6.885213864,-206.099
6.887167116,-206.263
6.889120368,-206.407
6.89107362,-206.54
6.893026873,-206.667
6.894980125,-206.797
6.896933377,-206.936
6.898886629,-207.092
6.900839881,-207.274
6.902793133,-207.491
6.904746386,-207.753
6.906699638,-208.07
6.90865289,-208.452
6.910606142,-208.906
6.912559394,-209.441
6.914512646,-210.061
6.916465899,-210.771
6.918419151,-211.573
6.920372403,-212.469
6.922325655,-213.459
6.924278907,-214.547
6.926232159,-215.735
6.928185412,-217.031
6.930138664,-218.437
6.932091916,-219.953
6.934045168,-221.573
6.93599842,-223.29
6.937951672,-225.089
6.939904924,-226.952
6.941858177,-228.86
6.943811429,-230.79
6.945764681,-232.721
6.947717933,-234.637
6.949671185,-236.528
6.951624437,-238.394
6.95357769,-240.234
6.955530942,-242.048
6.957484194,-243.825
6.959437446,-245.545
6.961390698,-247.19
6.96334395,-248.746
6.965297203,-250.209
6.967250455,-251.574
6.969203707,-252.845
6.971156959,-254.035
6.973110211,-255.163
6.975063463,-256.268
6.977016716,-257.385
6.978969968,-258.534
6.98092322,-259.72
6.982876472,-260.924
6.984829724,-262.117
6.986782976,-263.269
6.988736228,-264.366
6.990689481,-265.402
6.992642733,-266.368
6.994595985,-267.239
6.996549237,-267.983
6.998502489,-268.573
7.000455741,-268.982
7.002408994,-269.183
7.004362246,-269.12
7.006315498,-268.694
7.00826875,-267.79
7.010222002,-266.315
7.012175254,-264.202
7.014128507,-261.447
7.016081759,-258.062
7.018035011,-254.016
7.019988263,-249.326
7.021941515,-244.051
7.023894767,-238.299
7.02584802,-232.321
7.027801272,-226.359
7.029754524,-220.474
7.031707776,-214.721
7.033661028,-209.161
7.03561428,-203.687
7.037567532,-198.255
7.039520785,-192.79
7.041474037,-186.841
7.043427289,-180.036
7.045380541,-172.346
7.047333793,-163.784
7.049287045,-154.664
7.051240298,-145.751
7.05319355,-137.656
7.055146802,-131.021
7.057100054,-126.992
7.059053306,-126.532
7.061006558,-130.184
7.062959811,-138.409
7.064913063,-150.999
7.066866315,-167.026
7.068819567,-185.62
7.070772819,-205.752
7.072726071,-225.841
7.074679324,-244.401
7.076632576,-260.219
7.078585828,-272.122
7.08053908,-279.618
7.082492332,-282.9
7.084445584,-282.241
7.086398836,-278.18
7.088352089,-271.756
7.090305341,-264.103
7.092258593,-256.244
7.094211845,-249.195
7.096165097,-243.553
7.098118349,-239.493
7.100071602,-237.109
7.102024854,-236.314
7.103978106,-236.709
7.105931358,-237.766
7.10788461,-239.035
7.109837862,-240.121
7.111791115,-240.832
7.113744367,-241.177
7.115697619,-241.177
7.117650871,-240.9
7.119604123,-240.503
7.121557375,-240.186
7.123510628,-240.078
7.12546388,-240.245
7.127417132,-240.665
7.129370384,-241.232
7.131323636,-241.851
7.133276888,-242.434
7.13523014,-242.901
7.137183393,-243.188
7.139136645,-243.252
7.141089897,-243.072
7.143043149,-242.641
7.144996401,-241.973
7.146949653,-241.078
7.148902906,-239.962
7.150856158,-238.631
7.15280941,-237.084
7.154762662,-235.325
7.156715914,-233.366
7.158669166,-231.229
7.160622419,-228.94
7.162575671,-226.529
7.164528923,-224.025
7.166482175,-221.448
7.168435427,-218.811
7.170388679,-216.124
7.172341932,-213.392
7.174295184,-210.617
7.176248436,-207.802
7.178201688,-204.946
7.18015494,-202.048
7.182108192,-199.112
7.184061444,-196.144
7.186014697,-193.15
7.187967949,-190.136
7.189921201,-187.105
7.191874453,-184.056
7.193827705,-180.99
7.195780957,-177.906
7.19773421,-174.805
7.199687462,-171.688
7.201640714,-168.556
7.203593966,-165.414
7.205547218,-162.264
7.20750047,-159.112
7.209453723,-155.962
7.211406975,-152.82
7.213360227,-149.689
7.215313479,-146.572
7.217266731,-143.472
7.219219983,-140.39
7.221173236,-137.329
7.223126488,-134.292
7.22507974,-131.28
7.227032992,-128.295
7.228986244,-125.342
7.230939496,-122.423
7.232892748,-119.541
7.234846001,-116.701
7.236799253,-113.906
7.238752505,-111.16
7.240705757,-108.465
7.242659009,-105.826
7.244612261,-103.246
7.246565514,-100.729
7.248518766,-98.277
7.250472018,-95.894
7.25242527,-93.584
7.254378522,-91.349
7.256331774,-89.194
7.258285027,-87.122
7.260238279,-85.136
7.262191531,-83.239
7.264144783,-81.436
7.266098035,-79.728
7.268051287,-78.12
7.27000454,-76.613
7.271957792,-75.211
7.273911044,-73.917
7.275864296,-72.732
7.277817548,-71.66
7.2797708,-70.703
7.281724052,-69.862
7.283677305,-69.14
7.285630557,-68.538
7.287583809,-68.058
7.289537061,-67.699
7.291490313,-67.463
7.293443565,-67.35
7.295396818,-67.358
7.29735007,-67.487
7.299303322,-67.734
7.301256574,-68.098
7.303209826,-68.577
7.305163078,-69.166
7.307116331,-69.862
7.309069583,-70.662
7.311022835,-71.561
7.312976087,-72.554
7.314929339,-73.635
7.316882591,-74.799
7.318835844,-76.04
7.320789096,-77.351
7.322742348,-78.725
7.3246956,-80.156
7.326648852,-81.635
7.328602104,-83.156
7.330555356,-84.711
7.332508609,-86.291
7.334461861,-87.889
7.336415113,-89.497
7.338368365,-91.105
7.340321617,-92.706
7.342274869,-94.29
7.344228122,-95.85
7.346181374,-97.377
7.348134626,-98.863
7.350087878,-100.3
7.35204113,-101.681
7.353994382,-102.996
7.355947635,-104.241
7.357900887,-105.407
7.359854139,-106.488
7.361807391,-107.48
7.363760643,-108.376
7.365713895,-109.172
7.367667148,-109.863
7.3696204,-110.448
7.371573652,-110.922
7.373526904,-111.283
7.375480156,-111.531
7.377433408,-111.664
7.37938666,-111.683
7.381339913,-111.587
7.383293165,-111.378
7.385246417,-111.057
7.387199669,-110.626
7.389152921,-110.088
7.391106173,-109.446
7.393059426,-108.704
7.395012678,-107.866
7.39696593,-106.935
7.398919182,-105.919
7.400872434,-104.82
7.402825686,-103.646
7.404778939,-102.401
7.406732191,-101.093
7.408685443,-99.727
7.410638695,-98.309
7.412591947,-96.847
7.414545199,-95.346
7.416498452,-93.814
7.418451704,-92.256
7.420404956,-90.679
7.422358208,-89.09
7.42431146,-87.493
7.426264712,-85.895
7.428217964,-84.3
7.430171217,-82.713
7.432124469,-81.139
7.434077721,-79.58
7.436030973,-78.041
7.437984225,-76.523
7.439937477,-75.03
7.44189073,-73.563
7.443843982,-72.123
7.445797234,-70.71
7.447750486,-69.325
7.449703738,-67.968
7.45165699,-66.638
7.453610243,-65.333
7.455563495,-64.052
7.457516747,-62.794
7.459469999,-61.554
7.461423251,-60.332
7.463376503,-59.124
7.465329756,-57.927
7.467283008,-56.737
7.46923626,-55.552
7.471189512,-54.366
7.473142764,-53.177
7.475096016,-51.981
7.477049268,-50.772
7.479002521,-49.548
7.480955773,-48.303
7.482909025,-47.034
7.484862277,-45.738
7.486815529,-44.409
7.488768781,-43.045
7.490722034,-41.642
7.492675286,-40.198
7.494628538,-38.709
7.49658179,-37.174
7.498535042,-35.591
7.500488294,-33.958
7.502441547,-32.273
7.504394799,-30.538
7.506348051,-28.75
7.508301303,-26.911
7.510254555,-25.022
7.512207807,-23.083
7.51416106,-21.097
7.516114312,-19.066
7.518067564,-16.992
7.520020816,-14.879
7.521974068,-12.73
7.52392732,-10.548
7.525880572,-8.336
7.527833825,-6.098
7.529787077,-3.838
7.531740329,-1.56
7.533693581,0.732
7.535646833,3.035
7.537600085,5.343
7.539553338,7.652
7.54150659,9.957
7.543459842,12.254
7.545413094,14.538
7.547366346,16.804
7.549319598,19.048
7.551272851,21.264
7.553226103,23.448
7.555179355,25.595
7.557132607,27.701
7.559085859,29.762
7.561039111,31.774
7.562992364,33.733
7.564945616,35.635
7.566898868,37.478
7.56885212,39.26
7.570805372,40.978
7.572758624,42.632
7.574711876,44.22
7.576665129,45.745
7.578618381,47.206
7.580571633,48.605
7.582524885,49.944
7.584478137,51.225
7.586431389,52.451
7.588384642,53.621
7.590337894,54.739
7.592291146,55.806
7.594244398,56.822
7.59619765,57.79
7.598150902,58.709
7.600104155,59.584
7.602057407,60.417
7.604010659,61.213
7.605963911,61.977
7.607917163,62.713
7.609870415,63.428
7.611823668,64.129
7.61377692,64.823
7.615730172,65.517
7.617683424,66.217
7.619636676,66.926
7.621589928,67.653
7.62354318,68.403
7.625496433,69.188
7.627449685,70.016
7.629402937,70.888
7.631356189,71.807
7.633309441,72.769
7.635262693,73.771
7.637215946,74.807
7.639169198,75.867
7.64112245,76.931
7.643075702,77.982
7.645028954,79.005
7.646982206,79.987
7.648935459,80.929
7.650888711,81.832
7.652841963,82.695
7.654795215,83.518
7.656748467,84.299
7.658701719,85.04
7.660654972,85.763
7.662608224,86.488
7.664561476,87.233
7.666514728,88.02
7.66846798,88.871
7.670421232,89.815
7.672374484,90.905
7.674327737,92.182
7.676280989,93.674
7.678234241,95.402
7.680187493,97.357
7.682140745,99.525
7.684093997,101.896
7.68604725,104.452
7.688000502,107.164
7.689953754,109.999
7.691907006,112.898
7.693860258,115.798
7.69581351,118.658
7.697766763,121.43
7.699720015,124.063
7.701673267,126.501
7.703626519,128.654
7.705579771,130.449
7.707533023,131.835
7.709486276,132.772
7.711439528,133.255
7.71339278,133.29
7.715346032,132.88
7.717299284,132.042
7.719252536,130.809
7.721205788,129.219
7.723159041,127.326
7.725112293,125.188
7.727065545,122.83
7.729018797,120.287
7.730972049,117.596
7.732925301,114.802
7.734878554,111.982
7.736831806,109.199
7.738785058,106.504
7.74073831,103.947
7.742691562,101.561
7.744644814,99.365
7.746598067,97.369
7.748551319,95.559
7.750504571,93.903
7.752457823,92.392
7.754411075,91.028
7.756364327,89.844
7.75831758,88.881
7.760270832,88.132
7.762224084,87.628
7.764177336,87.469
7.766130588,87.815
7.76808384,88.849
7.770037092,90.637
7.771990345,93.088
7.773943597,96.104
7.775896849,99.721
7.777850101,103.987
7.779803353,108.852
7.781756605,113.996
7.783709858,118.925
7.78566311,123.362
7.787616362,127.366
7.789569614,131.234
7.791522866,135.194
7.793476118,139.307
7.795429371,143.645
7.797382623,148.708
7.799335875,155.315
7.801289127,164.197
7.803242379,175.775
7.805195631,189.791
7.807148884,205.765
7.809102136,223.415
7.811055388,242.447
7.81300864,262.167
7.814961892,281.456
7.816915144,298.817
7.818868396,312.63
7.820821649,322.062
7.822774901,326.632
7.824728153,325.757
7.826681405,319.065
7.828634657,306.427
7.830587909,288.193
7.832541162,265.555
7.834494414,240.302
7.836447666,213.858
7.838400918,187.59
7.84035417,162.993
7.842307422,141.247
7.844260675,123.484
7.846213927,110.473
7.848167179,102.147
7.850120431,97.85
7.852073683,96.886
7.854026935,98.342
7.855980188,101.129
7.85793344,104.406
7.859886692,107.314
7.861839944,109.195
7.863793196,109.905
7.865746448,109.584
7.8676997,108.471
7.869652953,106.984
7.871606205,105.643
7.873559457,104.782
7.875512709,104.685
7.877465961,105.526
7.879419213,107.219
7.881372466,109.59
7.883325718,112.437
7.88527897,115.484
7.887232222,118.441
7.889185474,121.14
7.891138726,123.466
7.893091979,125.355
7.895045231,126.834
7.896998483,127.94
7.898951735,128.713
7.900904987,129.234
7.902858239,129.581
7.904811492,129.798
7.906764744,129.924
7.908717996,129.994
7.910671248,130.042
7.9126245,130.13
7.914577752,130.315
7.916531004,130.627
7.918484257,131.09
7.920437509,131.713
7.922390761,132.502
7.924344013,133.463
7.926297265,134.588
7.928250517,135.855
7.93020377,137.241
7.932157022,138.725
7.934110274,140.288
7.936063526,141.923
7.938016778,143.613
7.93997003,145.338
7.941923283,147.075
7.943876535,148.794
7.945829787,150.474
7.947783039,152.102
7.949736291,153.669
7.951689543,155.167
7.953642796,156.596
7.955596048,157.953
7.9575493,159.245
7.959502552,160.486
7.961455804,161.684
7.963409056,162.848
7.965362308,163.985
7.967315561,165.099
7.969268813,166.197
7.971222065,167.288
7.973175317,168.38
7.975128569,169.483
7.977081821,170.604
7.979035074,171.748
7.980988326,172.922
7.982941578,174.132
7.98489483,175.383
7.986848082,176.677
7.988801334,178.016
7.990754587,179.401
7.992707839,180.833
7.994661091,182.311
7.996614343,183.838
7.998567595,185.413
8.000520847,187.036
8.0024741,188.706
8.004427352,190.422
8.006380604,192.183
8.008333856,193.986
8.010287108,195.827
8.01224036,197.703
8.014193612,199.608
8.016146865,201.538
8.018100117,203.487
8.020053369,205.448
8.022006621,207.415
8.023959873,209.381
8.025913125,211.337
8.027866378,213.276
8.02981963,215.192
8.031772882,217.074
8.033726134,218.915
8.035679386,220.707
8.037632638,222.44
8.039585891,224.109
8.041539143,225.703
8.043492395,227.216
8.045445647,228.639
8.047398899,229.966
8.049352151,231.191
8.051305404,232.306
8.053258656,233.307
8.055211908,234.188
8.05716516,234.945
8.059118412,235.574
8.061071664,236.072
8.063024916,236.436
8.064978169,236.664
8.066931421,236.754
8.068884673,236.705
8.070837925,236.517
8.072791177,236.191
8.074744429,235.726
8.076697682,235.126
8.078650934,234.392
8.080604186,233.527
8.082557438,232.534
8.08451069,231.418
8.086463942,230.184
8.088417195,228.837
8.090370447,227.382
8.092323699,225.826
8.094276951,224.174
8.096230203,222.435
8.098183455,220.616
8.100136708,218.725
8.10208996,216.769
8.104043212,214.758
8.105996464,212.701
8.107949716,210.605
8.109902968,208.48
8.11185622,206.336
8.113809473,204.18
8.115762725,202.022
8.117715977,199.871
8.119669229,197.735
8.121622481,195.622
8.123575733,193.541
8.125528986,191.5
8.127482238,189.507
8.12943549,187.569
8.131388742,185.693
8.133341994,183.888
8.135295246,182.159
8.137248499,180.513
8.139201751,178.955
8.141155003,177.493
8.143108255,176.13
8.145061507,174.872
8.147014759,173.723
8.148968012,172.687
8.150921264,171.767
8.152874516,170.966
8.154827768,170.287
8.15678102,169.731
8.158734272,169.3
8.160687524,168.995
8.162640777,168.815
8.164594029,168.76
8.166547281,168.83
8.168500533,169.022
8.170453785,169.335
8.172407037,169.766
8.17436029,170.313
8.176313542,170.973
8.178266794,171.743
8.180220046,172.618
8.182173298,173.597
8.18412655,174.674
8.186079803,175.846
8.188033055,177.109
8.189986307,178.459
8.191939559,179.89
8.193892811,181.4
8.195846063,182.984
8.197799316,184.636
8.199752568,186.354
8.20170582,188.133
8.203659072,189.968
8.205612324,191.856
8.207565576,193.793
8.209518828,195.775
8.211472081,197.798
8.213425333,199.859
8.215378585,201.955
8.217331837,204.082
8.219285089,206.239
8.221238341,208.423
8.223191594,210.631
8.225144846,212.862
8.227098098,215.115
8.22905135,217.389
8.231004602,219.683
8.232957854,221.996
8.234911107,224.328
8.236864359,226.679
8.238817611,229.049
8.240770863,231.439
8.242724115,233.849
8.244677367,236.278
8.24663062,238.729
8.248583872,241.2
8.250537124,243.693
8.252490376,246.209
8.254443628,248.747
8.25639688,251.308
8.258350132,253.893
8.260303385,256.502
8.262256637,259.135
8.264209889,261.792
8.266163141,264.473
8.268116393,267.179
8.270069645,269.909
8.272022898,272.663
8.27397615,275.442
8.275929402,278.244
8.277882654,281.071
8.279835906,283.921
8.281789158,286.795
8.283742411,289.692
8.285695663,292.612
8.287648915,295.554
8.289602167,298.517
8.291555419,301.5
8.293508671,304.504
8.295461924,307.527
8.297415176,310.568
8.299368428,313.626
8.30132168,316.702
8.303274932,319.792
8.305228184,322.898
8.307181436,326.017
8.309134689,329.15
8.311087941,332.294
8.313041193,335.45
8.314994445,338.616
8.316947697,341.794
8.318900949,344.981
8.320854202,348.179
8.322807454,351.387
8.324760706,354.607
8.326713958,357.838
8.32866721,361.081
8.330620462,364.336
8.332573715,367.604
8.334526967,370.885
8.336480219,374.178
8.338433471,377.485
8.340386723,380.805
8.342339975,384.138
8.344293228,387.484
8.34624648,390.843
8.348199732,394.214
8.350152984,397.597
8.352106236,400.992
8.354059488,404.399
8.35601274,407.815
8.357965993,411.241
8.359919245,414.676
8.361872497,418.119
8.363825749,421.569
8.365779001,425.025
8.367732253,428.488
8.369685506,431.957
8.371638758,435.432
8.37359201,438.913
8.375545262,442.4
8.377498514,445.892
8.379451766,449.389
8.381405019,452.891
8.383358271,456.396
8.385311523,459.902
8.387264775,463.409
8.389218027,466.916
8.391171279,470.421
8.393124532,473.925
8.395077784,477.428
8.397031036,480.932
8.398984288,484.438
8.40093754,487.952
8.402890792,491.476
8.404844044,495.014
8.406797297,498.57
8.408750549,502.149
8.410703801,505.753
8.412657053,509.39
8.414610305,513.063
8.416563557,516.777
8.41851681,520.539
8.420470062,524.353
8.422423314,528.226
8.424376566,532.168
8.426329818,536.185
8.42828307,540.282
8.430236323,544.461
8.432189575,548.721
8.434142827,553.065
8.436096079,557.498
8.438049331,562.029
8.440002583,566.667
8.441955836,571.424
8.443909088,576.316
8.44586234,581.363
8.447815592,586.597
8.449768844,592.046
8.451722096,597.73
8.453675348,603.672
8.455628601,609.885
8.457581853,616.383
8.459535105,623.187
8.461488357,630.309
8.463441609,637.761
8.465394861,645.547
8.467348114,653.654
8.469301366,662.06
8.471254618,670.739
8.47320787,679.645
8.475161122,688.715
8.477114374,697.871
8.479067627,707.008
8.481020879,716.021
8.482974131,724.815
8.484927383,733.293
8.486880635,741.365
8.488833887,748.935
8.49078714,755.914
8.492740392,762.24
8.494693644,767.866
8.496646896,772.767
8.498600148,776.941
8.5005534,780.389
8.502506652,783.145
8.504459905,785.287
8.506413157,786.893
8.508366409,788.035
8.510319661,788.832
8.512272913,789.413
8.514226165,789.945
8.516179418,790.668
8.51813267,791.782
8.520085922,793.446
8.522039174,795.943
8.523992426,799.609
8.525945678,804.543
8.527898931,810.641
8.529852183,817.692
8.531805435,825.189
8.533758687,833.25
8.535711939,842.697
8.537665191,852.866
8.539618444,862.474
8.541571696,869.634
8.543524948,871.24
8.5454782,868.309
8.547431452,864.912
8.549384704,864.847
8.551337956,872.629
8.553291209,887.484
8.555244461,903.981
8.557197713,918.273
8.559150965,927.687
8.561104217,933.135
8.563057469,937.457
8.565010722,939.058
8.566963974,931.781
8.568917226,907.785
8.570870478,861.64
8.57282373,795.017
8.574776982,716.208
8.576730235,634.393
8.578683487,555.855
8.580636739,482.074
8.582589991,411.054
8.584543243,342.231
8.586496495,276.971
8.588449748,217.537
8.590403,166.47
8.592356252,124.287
8.594309504,90.41
8.596262756,64.726
8.598216008,46.329
8.60016926,33.739
8.602122513,25.074
8.604075765,17.663
8.606029017,10.016
8.607982269,1.751
8.609935521,-7.061
8.611888773,-15.709
8.613842026,-25.32
8.615795278,-38.046
8.61774853,-56.896
8.619701782,-86.427
8.621655034,-127.812
8.623608286,-179.315
8.625561539,-236.124
8.627514791,-289.619
8.629468043,-334.009
8.631421295,-366.421
8.633374547,-387.491
8.635327799,-401.921
8.637281052,-413.082
8.639234304,-423.548
8.641187556,-434.204
8.643140808,-443.576
8.64509406,-451.416
8.647047312,-457.728
8.649000564,-463.033
8.650953817,-469.188
8.652907069,-477.108
8.654860321,-486.869
8.656813573,-498.293
8.658766825,-510.472
8.660720077,-522.526
8.66267333,-534.169
8.664626582,-545.177
8.666579834,-555.296
8.668533086,-564.467
8.670486338,-572.673
8.67243959,-579.95
8.674392843,-586.566
8.676346095,-592.811
8.678299347,-598.764
8.680252599,-604.432
8.682205851,-609.813
8.684159103,-614.857
8.686112356,-619.574
8.688065608,-624.003
8.69001886,-628.122
8.691972112,-631.902
8.693925364,-635.352
8.695878616,-638.496
8.697831868,-641.383
8.699785121,-644.068
8.701738373,-646.563
8.703691625,-648.862
8.705644877,-650.956
8.707598129,-652.857
8.709551381,-654.611
8.711504634,-656.28
8.713457886,-657.912
8.715411138,-659.538
8.71736439,-661.175
8.719317642,-662.837
8.721270894,-664.54
8.723224147,-666.295
8.725177399,-668.099
8.727130651,-669.935
8.729083903,-671.788
8.731037155,-673.648
8.732990407,-675.518
8.73494366,-677.41
8.736896912,-679.334
8.738850164,-681.289
8.740803416,-683.259
8.742756668,-685.222
8.74470992,-687.157
8.746663172,-689.047
8.748616425,-690.875
8.750569677,-692.624
8.752522929,-694.274
8.754476181,-695.808
8.756429433,-697.218
8.758382685,-698.502
8.760335938,-699.656
8.76228919,-700.675
8.764242442,-701.548
8.766195694,-702.263
8.768148946,-702.81
8.770102198,-703.183
8.772055451,-703.374
8.774008703,-703.381
8.775961955,-703.2
8.777915207,-702.828
8.779868459,-702.267
8.781821711,-701.519
8.783774964,-700.586
8.785728216,-699.473
8.787681468,-698.183
8.78963472,-696.717
8.791587972,-695.079
8.793541224,-693.275
8.795494476,-691.31
8.797447729,-689.192
8.799400981,-686.929
8.801354233,-684.529
8.803307485,-682.001
8.805260737,-679.359
8.807213989,-676.612
8.809167242,-673.775
8.811120494,-670.858
8.813073746,-667.874
8.815026998,-664.837
8.81698025,-661.76
8.818933502,-658.655
8.820886755,-655.536
8.822840007,-652.417
8.824793259,-649.309
8.826746511,-646.226
8.828699763,-643.18
8.830653015,-640.185
8.832606268,-637.251
8.83455952,-634.392
8.836512772,-631.618
8.838466024,-628.941
8.840419276,-626.37
8.842372528,-623.913
8.84432578,-621.581
8.846279033,-619.379
8.848232285,-617.315
8.850185537,-615.395
8.852138789,-613.622
8.854092041,-612
8.856045293,-610.536
8.857998546,-609.233
8.859951798,-608.094
8.86190505,-607.122
8.863858302,-606.312
8.865811554,-605.663
8.867764806,-605.177
8.869718059,-604.847
8.871671311,-604.658
8.873624563,-604.598
8.875577815,-604.651
8.877531067,-604.801
8.879484319,-605.062
8.881437572,-605.438
8.883390824,-605.911
8.885344076,-606.494
8.887297328,-607.215
8.88925058,-608.075
8.891203832,-609.093
8.893157084,-610.282
8.895110337,-611.568
8.897063589,-612.88
8.899016841,-614.226
8.900970093,-615.499
8.902923345,-616.493
8.904876597,-617.217
8.90682985,-617.727
8.908783102,-617.927
8.910736354,-618.063
8.912689606,-617.941
8.914642858,-616.444
8.91659611,-613.805
8.918549363,-611.106
8.920502615,-609.907
8.922455867,-613.832
8.924409119,-623.72
8.926362371,-635.995
8.928315623,-646.168
8.930268876,-647.918
8.932222128,-638.078
8.93417538,-621.151
8.936128632,-603.775
8.938081884,-592.301
8.940035136,-590.525
8.941988388,-595.786
8.943941641,-602.954
8.945894893,-609.074
8.947848145,-613.324
8.949801397,-616.099
8.951754649,-618.118
8.953707901,-618.32
8.955661154,-613.876
8.957614406,-604.874
8.959567658,-593.924
8.96152091,-583.611
8.963474162,-577.298
8.965427414,-575.387
8.967380667,-575.177
8.969333919,-574.992
8.971287171,-573.443
8.973240423,-570.146
8.975193675,-566.307
8.977146927,-562.412
8.97910018,-558.421
8.981053432,-554.401
8.983006684,-550.192
8.984959936,-545.778
8.986913188,-541.356
8.98886644,-536.987
8.990819692,-532.641
8.992772945,-528.331
8.994726197,-524.074
8.996679449,-519.869
8.998632701,-515.717
9.000585953,-511.606
9.002539205,-507.512
9.004492458,-503.432
9.00644571,-499.384
9.008398962,-495.376
9.010352214,-491.411
9.012305466,-487.491
9.014258718,-483.619
9.016211971,-479.794
9.018165223,-476.024
9.020118475,-472.309
9.022071727,-468.648
9.024024979,-465.04
9.025978231,-461.483
9.027931484,-457.979
9.029884736,-454.525
9.031837988,-451.121
9.03379124,-447.765
9.035744492,-444.456
9.037697744,-441.193
9.039650996,-437.973
9.041604249,-434.796
9.043557501,-431.658
9.045510753,-428.559
9.047464005,-425.497
9.049417257,-422.468
9.051370509,-419.472
9.053323762,-416.507
9.055277014,-413.571
9.057230266,-410.662
9.059183518,-407.779
9.06113677,-404.921
9.063090022,-402.087
9.065043275,-399.275
9.066996527,-396.486
9.068949779,-393.718
9.070903031,-390.971
9.072856283,-388.244
9.074809535,-385.538
9.076762788,-382.852
9.07871604,-380.187
9.080669292,-377.543
9.082622544,-374.92
9.084575796,-372.32
9.086529048,-369.742
9.0884823,-367.187
9.090435553,-364.655
9.092388805,-362.146
9.094342057,-359.66
9.096295309,-357.198
9.098248561,-354.758
9.100201813,-352.341
9.102155066,-349.945
9.104108318,-347.569
9.10606157,-345.214
9.108014822,-342.878
9.109968074,-340.56
9.111921326,-338.259
9.113874579,-335.973
9.115827831,-333.701
9.117781083,-331.441
9.119734335,-329.19
9.121687587,-326.948
9.123640839,-324.711
9.125594092,-322.477
9.127547344,-320.245
9.129500596,-318.012
9.131453848,-315.774
9.1334071,-313.53
9.135360352,-311.276
9.137313604,-309.009
9.139266857,-306.726
9.141220109,-304.423
9.143173361,-302.097
9.145126613,-299.742
9.147079865,-297.357
9.149033117,-294.936
9.15098637,-292.477
9.152939622,-289.977
9.154892874,-287.433
9.156846126,-284.841
9.158799378,-282.2
9.16075263,-279.508
9.162705883,-276.761
9.164659135,-273.958
9.166612387,-271.098
9.168565639,-268.178
9.170518891,-265.197
9.172472143,-262.155
9.174425396,-259.049
9.176378648,-255.88
9.1783319,-252.648
9.180285152,-249.354
9.182238404,-245.997
9.184191656,-242.579
9.186144908,-239.1
9.188098161,-235.562
9.190051413,-231.965
9.192004665,-228.312
9.193957917,-224.604
9.195911169,-220.843
9.197864421,-217.033
9.199817674,-213.178
9.201770926,-209.281
9.203724178,-205.349
9.20567743,-201.387
9.207630682,-197.402
9.209583934,-193.4
9.211537187,-189.386
9.213490439,-185.368
9.215443691,-181.352
9.217396943,-177.342
9.219350195,-173.344
9.221303447,-169.362
9.2232567,-165.401
9.225209952,-161.466
9.227163204,-157.562
9.229116456,-153.698
9.231069708,-149.879
9.23302296,-146.111
9.234976212,-142.402
9.236929465,-138.757
9.238882717,-135.183
9.240835969,-131.686
9.242789221,-128.271
9.244742473,-124.939
9.246695725,-121.692
9.248648978,-118.535
9.25060223,-115.471
9.252555482,-112.51
9.254508734,-109.657
9.256461986,-106.91
9.258415238,-104.27
9.260368491,-101.733
9.262321743,-99.293
9.264274995,-96.944
9.266228247,-94.672
9.268181499,-92.451
9.270134751,-90.257
9.272088004,-88.064
9.274041256,-85.859
9.275994508,-83.637
9.27794776,-81.39
9.279901012,-79.11
9.281854264,-76.788
9.283807516,-74.413
9.285760769,-71.985
9.287714021,-69.523
9.289667273,-67.03
9.291620525,-64.515
9.293573777,-61.995
9.295527029,-59.481
9.297480282,-57.015
9.299433534,-54.663
9.301386786,-52.469
9.303340038,-50.487
9.30529329,-48.763
9.307246542,-47.291
9.309199795,-46.042
9.311153047,-45.002
9.313106299,-44.14
9.315059551,-43.437
9.317012803,-42.883
9.318966055,-42.401
9.320919308,-41.881
9.32287256,-41.324
9.324825812,-40.863
9.326779064,-40.497
9.328732316,-40.078
9.330685568,-39.46
9.33263882,-38.301
9.334592073,-36.758
9.336545325,-35.742
9.338498577,-34.999
9.340451829,-33.502
9.342405081,-29.72
9.344358333,-20.862
9.346311586,-7.158
9.348264838,8.243
9.35021809,22.214
9.352171342,30.672
9.354124594,33.207
9.356077846,33.561
9.358031099,34.841
9.359984351,40.306
9.361937603,50.707
9.363890855,63.678
9.365844107,77.749
9.367797359,91.609
9.369750612,104.8
9.371703864,118.12
9.373657116,131.076
9.375610368,142.747
9.37756362,152.281
9.379516872,158.143
9.381470124,160.095
9.383423377,158.556
9.385376629,152.598
9.387329881,142.285
9.389283133,127.26
9.391236385,107.006
9.393189637,84.812
9.39514289,63.434
9.397096142,45.738
9.399049394,34.983
9.401002646,29.595
9.402955898,27.997
9.40490915,28.621
9.406862403,28.739
9.408815655,29.035
9.410768907,30.248
9.412722159,32.281
9.414675411,35.766
9.416628663,39.757
9.418581916,43.19
9.420535168,46.107
9.42248842,48.574
9.424441672,51.023
9.426394924,53.892
9.428348176,57.118
9.430301428,60.562
9.432254681,64.214
9.434207933,68.114
9.436161185,72.245
9.438114437,76.478
9.440067689,80.569
9.442020941,84.315
9.443974194,87.655
9.445927446,90.6
9.447880698,93.179
9.44983395,95.398
9.451787202,97.257
9.453740454,98.795
9.455693707,100.108
9.457646959,101.298
9.459600211,102.444
9.461553463,103.614
9.463506715,104.837
9.465459967,106.139
9.46741322,107.555
9.469366472,109.11
9.471319724,110.821
9.473272976,112.697
9.475226228,114.735
9.47717948,116.926
9.479132732,119.264
9.481085985,121.738
9.483039237,124.336
9.484992489,127.044
9.486945741,129.839
9.488898993,132.695
9.490852245,135.588
9.492805498,138.487
9.49475875,141.372
9.496712002,144.23
9.498665254,147.05
9.500618506,149.824
9.502571758,152.548
9.504525011,155.216
9.506478263,157.83
9.508431515,160.396
9.510384767,162.917
9.512338019,165.397
9.514291271,167.838
9.516244524,170.24
9.518197776,172.609
9.520151028,174.951
9.52210428,177.272
9.524057532,179.58
9.526010784,181.881
9.527964036,184.18
9.529917289,186.481
9.531870541,188.789
9.533823793,191.11
9.535777045,193.446
9.537730297,195.8
9.539683549,198.175
9.541636802,200.571
9.543590054,202.993
9.545543306,205.444
9.547496558,207.927
9.54944981,210.445
9.551403062,212.999
9.553356315,215.592
9.555309567,218.226
9.557262819,220.901
9.559216071,223.617
9.561169323,226.374
9.563122575,229.17
9.565075828,232.003
9.56702908,234.87
9.568982332,237.769
9.570935584,240.696
9.572888836,243.646
9.574842088,246.615
9.57679534,249.596
9.578748593,252.583
9.580701845,255.571
9.582655097,258.55
9.584608349,261.514
9.586561601,264.454
9.588514853,267.36
9.590468106,270.223
9.592421358,273.033
9.59437461,275.781
9.596327862,278.455
9.598281114,281.045
9.600234366,283.54
9.602187619,285.929
9.604140871,288.202
9.606094123,290.349
9.608047375,292.358
9.610000627,294.221
9.611953879,295.928
9.613907132,297.469
9.615860384,298.836
9.617813636,300.022
9.619766888,301.019
9.62172014,301.82
9.623673392,302.42
9.625626644,302.815
9.627579897,303.001
9.629533149,302.974
9.631486401,302.732
9.633439653,302.275
9.635392905,301.602
9.637346157,300.714
9.63929941,299.614
9.641252662,298.304
9.643205914,296.788
9.645159166,295.07
9.647112418,293.157
9.64906567,291.056
9.651018923,288.773
9.652972175,286.319
9.654925427,283.701
9.656878679,280.932
9.658831931,278.021
9.660785183,274.981
9.662738436,271.824
9.664691688,268.562
9.66664494,265.21
9.668598192,261.781
9.670551444,258.289
9.672504696,254.747
9.674457948,251.17
9.676411201,247.572
9.678364453,243.966
9.680317705,240.367
9.682270957,236.786
9.684224209,233.239
9.686177461,229.737
9.688130714,226.292
9.690083966,222.916
9.692037218,219.621
9.69399047,216.416
9.695943722,213.312
9.697896974,210.317
9.699850227,207.44
9.701803479,204.687
9.703756731,202.065
9.705709983,199.58
9.707663235,197.236
9.709616487,195.037
9.71156974,192.985
9.713522992,191.082
9.715476244,189.329
9.717429496,187.725
9.719382748,186.268
9.721336,184.957
9.723289252,183.787
9.725242505,182.755
9.727195757,181.857
9.729149009,181.085
9.731102261,180.433
9.733055513,179.896
9.735008765,179.464
9.736962018,179.131
9.73891527,178.888
9.740868522,178.727
9.742821774,178.638
9.744775026,178.613
9.746728278,178.643
9.748681531,178.718
9.750634783,178.829
9.752588035,178.967
9.754541287,179.122
9.756494539,179.287
9.758447791,179.451
9.760401044,179.607
9.762354296,179.747
9.764307548,179.863
9.7662608,179.948
9.768214052,179.995
9.770167304,179.999
9.772120556,179.952
9.774073809,179.852
9.776027061,179.693
9.777980313,179.473
9.779933565,179.188
9.781886817,178.836
9.783840069,178.416
9.785793322,177.928
9.787746574,177.372
9.789699826,176.748
9.791653078,176.058
9.79360633,175.305
9.795559582,174.49
9.797512835,173.616
9.799466087,172.688
9.801419339,171.707
9.803372591,170.68
9.805325843,169.609
9.807279095,168.5
9.809232348,167.357
9.8111856,166.185
9.813138852,164.99
9.815092104,163.776
9.817045356,162.549
9.818998608,161.315
9.82095186,160.078
9.822905113,158.843
9.824858365,157.616
9.826811617,156.402
9.828764869,155.204
9.830718121,154.028
9.832671373,152.878
9.834624626,151.756
9.836577878,150.666
9.83853113,149.611
9.840484382,148.594
9.842437634,147.615
9.844390886,146.675
9.846344139,145.777
9.848297391,144.919
9.850250643,144.101
9.852203895,143.323
9.854157147,142.583
9.856110399,141.879
9.858063652,141.21
9.860016904,140.573
9.861970156,139.966
9.863923408,139.385
9.86587666,138.828
9.867829912,138.291
9.869783164,137.771
9.871736417,137.264
9.873689669,136.766
9.875642921,136.273
9.877596173,135.782
9.879549425,135.288
9.881502677,134.788
9.88345593,134.276
9.885409182,133.749
9.887362434,133.202
9.889315686,132.631
9.891268938,132.033
9.89322219,131.402
9.895175443,130.737
9.897128695,130.032
9.899081947,129.286
9.901035199,128.495
9.902988451,127.657
9.904941703,126.77
9.906894956,125.833
9.908848208,124.845
9.91080146,123.805
9.912754712,122.713
9.914707964,121.568
9.916661216,120.372
9.918614468,119.125
9.920567721,117.828
9.922520973,116.484
9.924474225,115.093
9.926427477,113.657
9.928380729,112.18
9.930333981,110.663
9.932287234,109.11
9.934240486,107.523
9.936193738,105.905
9.93814699,104.259
9.940100242,102.59
9.942053494,100.902
9.944006747,99.198
9.945959999,97.483
9.947913251,95.762
9.949866503,94.041
9.951819755,92.325
9.953773007,90.62
9.95572626,88.931
9.957679512,87.265
9.959632764,85.626
9.961586016,84.022
9.963539268,82.457
9.96549252,80.937
9.967445772,79.467
9.969399025,78.052
9.971352277,76.697
9.973305529,75.405
9.975258781,74.182
9.977212033,73.03
9.979165285,71.955
9.981118538,70.958
9.98307179,70.043
9.985025042,69.212
9.986978294,68.468
9.988931546,67.812
9.990884798,67.246
9.992838051,66.771
9.994791303,66.387
9.996744555,66.095
9.998697807,65.895
10.00065106,65.788
10.00260431,65.771
10.00455756,65.843
10.00651082,66.003
10.00846407,66.246
10.01041732,66.569
10.01237057,66.966
10.01432382,67.432
10.01627708,67.959
10.01823033,68.54
10.02018358,69.168
10.02213683,69.835
10.02409009,70.533
10.02604334,71.253
10.02799659,71.989
10.02994984,72.734
10.03190309,73.48
10.03385635,74.22
10.0358096,74.945
10.03776285,75.649
10.0397161,76.322
10.04166935,76.956
10.04362261,77.543
10.04557586,78.075
10.04752911,78.542
10.04948236,78.937
10.05143562,79.253
10.05338887,79.485
10.05534212,79.627
10.05729537,79.674
10.05924862,79.618
10.06120188,79.45
10.06315513,79.163
10.06510838,78.757
10.06706163,78.231
10.06901488,77.586
10.07096814,76.829
10.07292139,75.97
10.07487464,75.028
10.07682789,74.025
10.07878115,72.985
10.0807344,71.931
10.08268765,70.883
10.0846409,69.858
10.08659415,68.876
10.08854741,67.953
10.09050066,67.1
10.09245391,66.333
10.09440716,65.658
10.09636042,65.079
10.09831367,64.591
10.10026692,64.183
10.10222017,63.829
10.10417342,63.5
10.10612668,63.155
10.10807993,62.738
10.11003318,62.198
10.11198643,61.481
10.11393968,60.534
10.11589294,59.322
10.11784619,57.813
10.11979944,55.994
10.12175269,53.868
10.12370595,51.442
10.1256592,48.734
10.12761245,45.782
10.1295657,42.637
10.13151895,39.381
10.13347221,36.123
10.13542546,32.966
10.13737871,30.032
10.13933196,27.463
10.14128521,25.4
10.14323847,24.002
10.14519172,23.426
10.14714497,23.788
10.14909822,25.19
10.15105148,27.696
10.15300473,31.341
10.15495798,36.151
10.15691123,42.126
10.15886448,49.219
10.16081774,57.35
10.16277099,66.386
10.16472424,76.148
10.16667749,86.465
10.16863074,97.14
10.170584,107.939
10.17253725,118.614
10.1744905,128.875
10.17644375,138.429
10.17839701,147.034
10.18035026,154.473
10.18230351,160.553
10.18425676,165.12
10.18621001,168.021
10.18816327,169.146
10.19011652,168.452
10.19206977,165.944
10.19402302,161.687
10.19597628,155.794
10.19792953,148.379
10.19988278,139.593
10.20183603,129.643
10.20378928,118.764
10.20574254,107.241
10.20769579,95.376
10.20964904,83.426
10.21160229,71.639
10.21355554,60.262
10.2155088,49.517
10.21746205,39.622
10.2194153,30.76
10.22136855,23.044
10.22332181,16.548
10.22527506,11.311
10.22722831,7.333
10.22918156,4.608
10.23113481,3.093
10.23308807,2.691
10.23504132,3.28
10.23699457,4.711
10.23894782,6.807
10.24090107,9.421
10.24285433,12.396
10.24480758,15.56
10.24676083,18.76
10.24871408,21.851
10.25066734,24.711
10.25262059,27.265
10.25457384,29.46
10.25652709,31.25
10.25848034,32.611
10.2604336,33.532
10.26238685,34.016
10.2643401,34.101
10.26629335,33.835
10.26824661,33.267
10.27019986,32.465
10.27215311,31.49
10.27410636,30.409
10.27605961,29.308
10.27801287,28.251
10.27996612,27.295
10.28191937,26.481
10.28387262,25.83
10.28582587,25.356
10.28777913,25.071
10.28973238,24.979
10.29168563,25.072
10.29363888,25.341
10.29559214,25.767
10.29754539,26.331
10.29949864,27.02
10.30145189,27.812
10.30340514,28.684
10.3053584,29.613
10.30731165,30.565
10.3092649,31.518
10.31121815,32.458
10.3131714,33.376
10.31512466,34.268
10.31707791,35.132
10.31903116,35.967
10.32098441,36.776
10.32293767,37.57
10.32489092,38.355
10.32684417,39.137
10.32879742,39.922
10.33075067,40.712
10.33270393,41.513
10.33465718,42.33
10.33661043,43.173
10.33856368,44.046
10.34051694,44.958
10.34247019,45.912
10.34442344,46.91
10.34637669,47.958
10.34832994,49.057
10.3502832,50.209
10.35223645,51.413
10.3541897,52.668
10.35614295,53.972
10.3580962,55.327
10.36004946,56.729
10.36200271,58.18
10.36395596,59.676
10.36590921,61.214
10.36786247,62.793
10.36981572,64.408
10.37176897,66.055
10.37372222,67.73
10.37567547,69.425
10.37762873,71.134
10.37958198,72.85
10.38153523,74.565
10.38348848,76.271
10.38544173,77.961
10.38739499,79.625
10.38934824,81.255
10.39130149,82.841
10.39325474,84.376
10.395208,85.85
10.39716125,87.253
10.3991145,88.576
10.40106775,89.81
10.403021,90.945
10.40497426,91.972
10.40692751,92.882
10.40888076,93.666
10.41083401,94.316
10.41278726,94.824
10.41474052,95.181
10.41669377,95.382
10.41864702,95.418
10.42060027,95.286
10.42255353,94.978
10.42450678,94.491
10.42646003,93.822
10.42841328,92.967
10.43036653,91.925
10.43231979,90.695
10.43427304,89.278
10.43622629,87.674
10.43817954,85.885
10.4401328,83.916
10.44208605,81.769
10.4440393,79.451
10.44599255,76.966
10.4479458,74.322
10.44989906,71.525
10.45185231,68.584
10.45380556,65.507
10.45575881,62.302
10.45771206,58.98
10.45966532,55.551
10.46161857,52.026
10.46357182,48.415
10.46552507,44.729
10.46747833,40.981
10.46943158,37.182
10.47138483,33.344
10.47333808,29.479
10.47529133,25.6
10.47724459,21.718
10.47919784,17.845
10.48115109,13.993
10.48310434,10.174
10.48505759,6.398
10.48701085,2.677
10.4889641,-0.98
10.49091735,-4.564
10.4928706,-8.064
10.49482386,-11.474
10.49677711,-14.786
10.49873036,-17.993
10.50068361,-21.089
10.50263686,-24.07
10.50459012,-26.932
10.50654337,-29.671
10.50849662,-32.285
10.51044987,-34.77
10.51240313,-37.128
10.51435638,-39.356
10.51630963,-41.455
10.51826288,-43.425
10.52021613,-45.269
10.52216939,-46.989
10.52412264,-48.587
10.52607589,-50.065
10.52802914,-51.429
10.52998239,-52.681
10.53193565,-53.827
10.5338889,-54.87
10.53584215,-55.817
10.5377954,-56.673
10.53974866,-57.444
10.54170191,-58.135
10.54365516,-58.753
10.54560841,-59.305
10.54756166,-59.797
10.54951492,-60.236
10.55146817,-60.627
10.55342142,-60.977
10.55537467,-61.293
10.55732792,-61.578
10.55928118,-61.839
10.56123443,-62.081
10.56318768,-62.309
10.56514093,-62.526
10.56709419,-62.736
10.56904744,-62.944
10.57100069,-63.151
10.57295394,-63.362
10.57490719,-63.579
10.57686045,-63.804
10.5788137,-64.039
10.58076695,-64.284
10.5827202,-64.543
10.58467346,-64.814
10.58662671,-65.1
10.58857996,-65.4
10.59053321,-65.715
10.59248646,-66.045
10.59443972,-66.39
10.59639297,-66.75
10.59834622,-67.125
10.60029947,-67.513
10.60225272,-67.914
10.60420598,-68.327
10.60615923,-68.75
10.60811248,-69.181
10.61006573,-69.62
10.61201899,-70.065
10.61397224,-70.513
10.61592549,-70.964
10.61787874,-71.416
10.61983199,-71.867
10.62178525,-72.316
10.6237385,-72.762
10.62569175,-73.204
10.627645,-73.641
10.62959825,-74.072
10.63155151,-74.495
10.63350476,-74.911
10.63545801,-75.318
10.63741126,-75.716
10.63936452,-76.105
10.64131777,-76.483
10.64327102,-76.852
10.64522427,-77.21
10.64717752,-77.558
10.64913078,-77.894
10.65108403,-78.219
10.65303728,-78.532
10.65499053,-78.833
10.65694378,-79.121
10.65889704,-79.394
10.66085029,-79.654
10.66280354,-79.898
10.66475679,-80.127
10.66671005,-80.34
10.6686633,-80.537
10.67061655,-80.718
10.6725698,-80.883
10.67452305,-81.031
10.67647631,-81.162
10.67842956,-81.277
10.68038281,-81.375
10.68233606,-81.456
10.68428932,-81.521
10.68624257,-81.568
10.68819582,-81.598
10.69014907,-81.612
10.69210232,-81.608
10.69405558,-81.588
10.69600883,-81.552
10.69796208,-81.499
10.69991533,-81.431
10.70186858,-81.347
10.70382184,-81.248
10.70577509,-81.134
10.70772834,-81.007
10.70968159,-80.866
10.71163485,-80.713
10.7135881,-80.549
10.71554135,-80.376
10.7174946,-80.196
10.71944785,-80.009
10.72140111,-79.819
10.72335436,-79.628
10.72530761,-79.437
10.72726086,-79.249
10.72921411,-79.066
10.73116737,-78.891
10.73312062,-78.724
10.73507387,-78.569
10.73702712,-78.427
10.73898038,-78.301
10.74093363,-78.192
10.74288688,-78.102
10.74484013,-78.033
10.74679338,-77.985
10.74874664,-77.961
10.75069989,-77.961
10.75265314,-77.986
10.75460639,-78.037
10.75655965,-78.114
10.7585129,-78.216
10.76046615,-78.345
10.7624194,-78.5
10.76437265,-78.679
10.76632591,-78.883
10.76827916,-79.109
10.77023241,-79.357
10.77218566,-79.623
10.77413891,-79.906
10.77609217,-80.202
10.77804542,-80.51
10.77999867,-80.824
10.78195192,-81.14
10.78390518,-81.456
10.78585843,-81.766
10.78781168,-82.067
10.78976493,-82.352
10.79171818,-82.618
10.79367144,-82.859
10.79562469,-83.07
10.79757794,-83.246
10.79953119,-83.382
10.80148444,-83.473
10.8034377,-83.515
10.80539095,-83.502
10.8073442,-83.431
10.80929745,-83.297
10.81125071,-83.098
10.81320396,-82.83
10.81515721,-82.49
10.81711046,-82.075
10.81906371,-81.584
10.82101697,-81.016
10.82297022,-80.368
10.82492347,-79.64
10.82687672,-78.833
10.82882998,-77.948
10.83078323,-76.986
10.83273648,-75.952
10.83468973,-74.848
10.83664298,-73.676
10.83859624,-72.443
10.84054949,-71.152
10.84250274,-69.809
10.84445599,-68.419
10.84640924,-66.986
10.8483625,-65.516
10.85031575,-64.015
10.852269,-62.489
10.85422225,-60.948
10.85617551,-59.398
10.85812876,-57.847
10.86008201,-56.304
10.86203526,-54.778
10.86398851,-53.279
10.86594177,-51.817
10.86789502,-50.399
10.86984827,-49.033
10.87180152,-47.726
10.87375477,-46.485
10.87570803,-45.321
10.87766128,-44.245
10.87961453,-43.264
10.88156778,-42.379
10.88352104,-41.595
10.88547429,-40.912
10.88742754,-40.329
10.88938079,-39.841
10.89133404,-39.437
10.8932873,-39.099
10.89524055,-38.812
10.8971938,-38.56
10.89914705,-38.327
10.9011003,-38.103
10.90305356,-37.869
10.90500681,-37.609
10.90696006,-37.312
10.90891331,-36.965
10.91086657,-36.563
10.91281982,-36.113
10.91477307,-35.62
10.91672632,-35.09
10.91867957,-34.552
10.92063283,-34.026
10.92258608,-33.545
10.92453933,-33.16
10.92649258,-32.909
10.92844584,-32.833
10.93039909,-32.981
10.93235234,-33.388
10.93430559,-34.092
10.93625884,-35.123
10.9382121,-36.482
10.94016535,-38.172
10.9421186,-40.182
10.94407185,-42.467
10.9460251,-44.984
10.94797836,-47.668
10.94993161,-50.423
10.95188486,-53.178
10.95383811,-55.85
10.95579137,-58.306
10.95774462,-60.425
10.95969787,-62.054
10.96165112,-63.01
10.96360437,-63.177
10.96555763,-62.442
10.96751088,-60.667
10.96946413,-57.82
10.97141738,-53.913
10.97337063,-48.996
10.97532389,-43.295
10.97727714,-37.032
10.97923039,-30.282
10.98118364,-23.176
10.9831369,-15.8
10.98509015,-8.011
10.9870434,0.292
10.98899665,9.257
10.9909499,19.271
10.99290316,30.505
10.99485641,42.791
10.99680966,55.951
10.99876291,69.544
11.00071617,82.666
11.00266942,94.431
11.00462267,103.859
11.00657592,109.782
11.00852917,111.431
11.01048243,108.499
11.01243568,100.774
11.01438893,88.477
11.01634218,72.527
11.01829543,54.022
11.02024869,34.285
11.02220194,14.756
11.02415519,-3.529
11.02610844,-19.835
11.0280617,-33.408
11.03001495,-43.796
11.0319682,-51.156
11.03392145,-55.951
11.0358747,-58.94
11.03782796,-60.86
11.03978121,-62.078
11.04173446,-62.867
11.04368771,-63.607
11.04564096,-64.64
11.04759422,-66.025
11.04954747,-67.551
11.05150072,-68.762
11.05345397,-69.326
11.05540723,-69.222
11.05736048,-68.504
11.05931373,-67.197
11.06126698,-65.277
11.06322023,-62.767
11.06517349,-59.852
11.06712674,-56.879
11.06907999,-54.119
11.07103324,-51.69
11.0729865,-49.634
11.07493975,-47.943
11.076893,-46.64
11.07884625,-45.784
11.0807995,-45.362
11.08275276,-45.299
11.08470601,-45.507
11.08665926,-45.908
11.08861251,-46.452
11.09056576,-47.117
11.09251902,-47.863
11.09447227,-48.615
11.09642552,-49.312
11.09837877,-49.894
11.10033203,-50.323
11.10228528,-50.592
11.10423853,-50.685
11.10619178,-50.586
11.10814503,-50.292
11.11009829,-49.804
11.11205154,-49.128
11.11400479,-48.277
11.11595804,-47.268
11.11791129,-46.108
11.11986455,-44.819
11.1218178,-43.427
11.12377105,-41.947
11.1257243,-40.398
11.12767756,-38.823
11.12963081,-37.251
11.13158406,-35.704
11.13353731,-34.203
11.13549056,-32.738
11.13744382,-31.282
11.13939707,-29.85
11.14135032,-28.463
11.14330357,-27.041
11.14525682,-25.489
11.14721008,-23.857
11.14916333,-22.139
11.15111658,-20.315
11.15306983,-18.572
11.15502309,-16.389
11.15697634,-13.259
11.15892959,-9.896
11.16088284,-6.516
11.16283609,-4.435
11.16478935,-5.23
11.1667426,-7.155
11.16869585,-9.05
11.1706491,-9.185
11.17260236,-5.185
11.17455561,0.842
11.17650886,7.108
11.17846211,12.39
11.18041536,14.663
11.18236862,15.37
11.18432187,15.969
11.18627512,16.783
11.18822837,18.699
11.19018162,21.196
11.19213488,23.601
11.19408813,26.036
11.19604138,28.409
11.19799463,30.759
11.19994789,33.212
11.20190114,35.674
11.20385439,38.066
11.20580764,40.405
11.20776089,42.687
11.20971415,44.895
11.2116674,47.025
11.21362065,49.072
11.2155739,51.032
11.21752715,52.909
11.21948041,54.71
11.22143366,56.422
11.22338691,58.031
11.22534016,59.533
11.22729342,60.921
11.22924667,62.189
11.23119992,63.332
11.23315317,64.343
11.23510642,65.216
11.23705968,65.947
11.23901293,66.533
11.24096618,66.97
11.24291943,67.257
11.24487269,67.39
11.24682594,67.366
11.24877919,67.186
11.25073244,66.847
11.25268569,66.35
11.25463895,65.695
11.2565922,64.882
11.25854545,63.915
11.2604987,62.794
11.26245195,61.523
11.26440521,60.106
11.26635846,58.547
11.26831171,56.851
11.27026496,55.023
11.27221822,53.07
11.27417147,50.997
11.27612472,48.814
11.27807797,46.525
